Timestamp_ms,Packet_Number,Trial_ID,Ch1,Ch2,Ch3,Ch4,Ch5,Ch6,Ch7,Ch8,Ch9,Ch10,Ch11,Label
2174.46240234375,56068,1,1753.0,1757.0,1757.0,1757.0,1751.0,1752.0,1764.0,1749.0,-125.38461303710938,-8.122989654541016,-49.585662841796875,Left
2176.46240234375,56068,1,1759.0,1755.0,1757.0,1755.0,1751.0,1755.0,1763.0,1741.0,-125.38461303710938,-8.122989654541016,-49.585662841796875,Left
2178.46240234375,56068,1,1751.0,1754.0,1757.0,1758.0,1746.0,1753.0,1757.0,1752.0,-125.38461303710938,-8.122989654541016,-49.585662841796875,Left
2180.46240234375,56068,1,1751.0,1751.0,1757.0,1757.0,1749.0,1753.0,1764.0,1747.0,-125.38461303710938,-8.122989654541016,-49.585662841796875,Left
2182.46240234375,56068,1,1769.0,1765.0,1752.0,1756.0,1753.0,1753.0,1763.0,1751.0,-125.1016616821289,-7.871725559234619,-50.023231506347656,Left
2175.607177734375,56069,1,1755.0,1767.0,1757.0,1759.0,1763.0,1752.0,1761.0,1757.0,-125.1016616821289,-7.871725559234619,-50.023231506347656,Left
2177.607177734375,56069,1,1781.0,1773.0,1757.0,1740.0,1773.0,1754.0,1757.0,1747.0,-125.1016616821289,-7.871725559234619,-50.023231506347656,Left
2179.607177734375,56069,1,1752.0,1771.0,1751.0,1763.0,1755.0,1752.0,1763.0,1751.0,-125.1016616821289,-7.871725559234619,-50.023231506347656,Left
2181.607177734375,56069,1,1771.0,1763.0,1755.0,1758.0,1749.0,1753.0,1764.0,1745.0,-125.1016616821289,-7.871725559234619,-50.023231506347656,Left
2183.607177734375,56069,1,1752.0,1757.0,1753.0,1759.0,1751.0,1752.0,1762.0,1747.0,-125.1016616821289,-7.871725559234619,-50.023231506347656,Left
2176.0849609375,56070,1,1755.0,1757.0,1759.0,1762.0,1755.0,1754.0,1763.0,1756.0,-125.1016616821289,-7.871725559234619,-50.023231506347656,Left
2178.0849609375,56070,1,1753.0,1757.0,1763.0,1751.0,1753.0,1753.0,1759.0,1742.0,-125.1016616821289,-7.871725559234619,-50.023231506347656,Left
2180.0849609375,56070,1,1757.0,1756.0,1758.0,1759.0,1753.0,1752.0,1757.0,1750.0,-125.1016616821289,-7.871725559234619,-50.023231506347656,Left
2182.0849609375,56070,1,1759.0,1755.0,1761.0,1755.0,1752.0,1753.0,1763.0,1749.0,-125.1016616821289,-7.871725559234619,-50.023231506347656,Left
2184.0849609375,56070,1,1759.0,1756.0,1757.0,1757.0,1757.0,1755.0,1763.0,1752.0,-125.1016616821289,-7.871725559234619,-50.023231506347656,Left
2176.46728515625,56071,1,1765.0,1755.0,1755.0,1759.0,1747.0,1753.0,1763.0,1750.0,-125.1016616821289,-7.871725559234619,-50.023231506347656,Left
2178.46728515625,56071,1,1759.0,1763.0,1755.0,1755.0,1750.0,1751.0,1763.0,1751.0,-125.1016616821289,-7.871725559234619,-50.023231506347656,Left
2180.46728515625,56071,1,1753.0,1766.0,1756.0,1753.0,1749.0,1753.0,1756.0,1751.0,-125.1016616821289,-7.871725559234619,-50.023231506347656,Left
2182.46728515625,56071,1,1751.0,1758.0,1757.0,1756.0,1754.0,1752.0,1762.0,1751.0,-125.1016616821289,-7.871725559234619,-50.023231506347656,Left
2184.46728515625,56071,1,1757.0,1765.0,1756.0,1763.0,1754.0,1753.0,1764.0,1747.0,-125.1016616821289,-7.871725559234619,-50.023231506347656,Left
2176.913330078125,56072,1,1772.0,1770.0,1757.0,1763.0,1765.0,1752.0,1759.0,1763.0,-125.1016616821289,-7.871725559234619,-50.023231506347656,Left
2178.913330078125,56072,1,1758.0,1764.0,1759.0,1763.0,1748.0,1753.0,1763.0,1751.0,-125.1016616821289,-7.871725559234619,-50.023231506347656,Left
2180.913330078125,56072,1,1750.0,1757.0,1755.0,1757.0,1757.0,1753.0,1763.0,1747.0,-125.1016616821289,-7.871725559234619,-50.023231506347656,Left
2182.913330078125,56072,1,1757.0,1765.0,1755.0,1759.0,1765.0,1751.0,1763.0,1759.0,-125.1016616821289,-7.871725559234619,-50.023231506347656,Left
2184.913330078125,56072,1,1775.0,1767.0,1757.0,1766.0,1754.0,1753.0,1759.0,1751.0,-125.1016616821289,-7.871725559234619,-50.023231506347656,Left
2177.63134765625,56073,1,1769.0,1763.0,1756.0,1756.0,1754.0,1753.0,1764.0,1755.0,-125.1016616821289,-7.871725559234619,-50.023231506347656,Left
2179.63134765625,56073,1,1754.0,1766.0,1755.0,1800.0,1751.0,1753.0,1764.0,1751.0,-125.1016616821289,-7.871725559234619,-50.023231506347656,Left
2181.63134765625,56073,1,1767.0,1769.0,1755.0,1765.0,1754.0,1755.0,1762.0,1751.0,-125.1016616821289,-7.871725559234619,-50.023231506347656,Left
2183.63134765625,56073,1,1753.0,1763.0,1757.0,1759.0,1751.0,1749.0,1763.0,1749.0,-125.1016616821289,-7.871725559234619,-50.023231506347656,Left
2185.63134765625,56073,1,1749.0,1753.0,1754.0,1755.0,1746.0,1755.0,1763.0,1739.0,-125.1016616821289,-7.871725559234619,-50.023231506347656,Left
2178.130126953125,56074,1,1758.0,1754.0,1759.0,1755.0,1749.0,1752.0,1764.0,1741.0,-125.1016616821289,-7.871725559234619,-50.023231506347656,Left
2180.130126953125,56074,1,1756.0,1757.0,1755.0,1759.0,1739.0,1747.0,1757.0,1751.0,-125.1016616821289,-7.871725559234619,-50.023231506347656,Left
2182.130126953125,56074,1,1769.0,1754.0,1759.0,1759.0,1745.0,1752.0,1761.0,1752.0,-125.1016616821289,-7.871725559234619,-50.023231506347656,Left
2184.130126953125,56074,1,1747.0,1755.0,1756.0,1754.0,1747.0,1752.0,1763.0,1749.0,-125.1016616821289,-7.871725559234619,-50.023231506347656,Left
2186.130126953125,56074,1,1763.0,1755.0,1757.0,1759.0,1746.0,1753.0,1757.0,1753.0,-125.1016616821289,-7.871725559234619,-50.023231506347656,Left
2178.628173828125,56075,1,1755.0,1767.0,1763.0,1758.0,1763.0,1752.0,1757.0,1751.0,-125.1016616821289,-7.871725559234619,-50.023231506347656,Left
2180.628173828125,56075,1,1757.0,1771.0,1755.0,1755.0,1759.0,1754.0,1759.0,1753.0,-125.1016616821289,-7.871725559234619,-50.023231506347656,Left
2182.628173828125,56075,1,1750.0,1759.0,1753.0,1753.0,1753.0,1753.0,1757.0,1747.0,-124.82228088378906,-7.806263446807861,-50.45802307128906,Left
2184.628173828125,56075,1,1767.0,1763.0,1755.0,1758.0,1755.0,1750.0,1764.0,1758.0,-124.82228088378906,-7.806263446807861,-50.45802307128906,Left
2186.628173828125,56075,1,1771.0,1763.0,1755.0,1765.0,1752.0,1749.0,1762.0,1762.0,-124.82228088378906,-7.806263446807861,-50.45802307128906,Left
2179.55615234375,56076,1,1767.0,1769.0,1763.0,1765.0,1756.0,1751.0,1763.0,1749.0,-124.82228088378906,-7.806263446807861,-50.45802307128906,Left
2181.55615234375,56076,1,1753.0,1763.0,1759.0,1757.0,1765.0,1752.0,1763.0,1751.0,-124.82228088378906,-7.806263446807861,-50.45802307128906,Left
2183.55615234375,56076,1,1769.0,1766.0,1757.0,1763.0,1769.0,1753.0,1764.0,1752.0,-124.82228088378906,-7.806263446807861,-50.45802307128906,Left
2185.55615234375,56076,1,1754.0,1763.0,1759.0,1760.0,1767.0,1751.0,1765.0,1747.0,-124.82228088378906,-7.806263446807861,-50.45802307128906,Left
2187.55615234375,56076,1,1765.0,1764.0,1759.0,1763.0,1758.0,1752.0,1759.0,1749.0,-124.82228088378906,-7.806263446807861,-50.45802307128906,Left
2179.961181640625,56077,1,1749.0,1756.0,1755.0,1753.0,1742.0,1752.0,1763.0,1747.0,-124.82228088378906,-7.806263446807861,-50.45802307128906,Left
2181.961181640625,56077,1,1747.0,1759.0,1753.0,1753.0,1734.0,1753.0,1764.0,1739.0,-124.82228088378906,-7.806263446807861,-50.45802307128906,Left
2183.961181640625,56077,1,1755.0,1756.0,1755.0,1753.0,1740.0,1753.0,1763.0,1753.0,-124.82228088378906,-7.806263446807861,-50.45802307128906,Left
2185.961181640625,56077,1,1764.0,1765.0,1759.0,1757.0,1755.0,1754.0,1757.0,1749.0,-124.82228088378906,-7.806263446807861,-50.45802307128906,Left
2187.961181640625,56077,1,1755.0,1755.0,1762.0,1757.0,1758.0,1755.0,1765.0,1751.0,-124.82228088378906,-7.806263446807861,-50.45802307128906,Left
2180.3759765625,56078,1,1749.0,1759.0,1751.0,1756.0,1762.0,1755.0,1758.0,1747.0,-124.82228088378906,-7.806263446807861,-50.45802307128906,Left
2182.3759765625,56078,1,1757.0,1767.0,1759.0,1766.0,1757.0,1753.0,1763.0,1753.0,-124.82228088378906,-7.806263446807861,-50.45802307128906,Left
2184.3759765625,56078,1,1757.0,1759.0,1755.0,1754.0,1747.0,1755.0,1763.0,1752.0,-124.82228088378906,-7.806263446807861,-50.45802307128906,Left
2186.3759765625,56078,1,1757.0,1762.0,1757.0,1759.0,1753.0,1753.0,1763.0,1756.0,-124.82228088378906,-7.806263446807861,-50.45802307128906,Left
2188.3759765625,56078,1,1755.0,1763.0,1755.0,1763.0,1742.0,1753.0,1757.0,1755.0,-124.82228088378906,-7.806263446807861,-50.45802307128906,Left
2180.940185546875,56079,1,1756.0,1766.0,1757.0,1756.0,1751.0,1755.0,1763.0,1748.0,-124.82228088378906,-7.806263446807861,-50.45802307128906,Left
2182.940185546875,56079,1,1755.0,1768.0,1757.0,1757.0,1746.0,1749.0,1763.0,1748.0,-124.82228088378906,-7.806263446807861,-50.45802307128906,Left
2184.940185546875,56079,1,1769.0,1770.0,1753.0,1755.0,1762.0,1753.0,1757.0,1751.0,-124.82228088378906,-7.806263446807861,-50.45802307128906,Left
2186.940185546875,56079,1,1783.0,1773.0,1763.0,1767.0,1771.0,1751.0,1763.0,1755.0,-124.82228088378906,-7.806263446807861,-50.45802307128906,Left
2188.940185546875,56079,1,1763.0,1765.0,1757.0,1764.0,1755.0,1754.0,1757.0,1755.0,-124.82228088378906,-7.806263446807861,-50.45802307128906,Left
2181.43505859375,56080,1,1775.0,1757.0,1758.0,1763.0,1749.0,1752.0,1765.0,1747.0,-124.82228088378906,-7.806263446807861,-50.45802307128906,Left
2183.43505859375,56080,1,1751.0,1753.0,1757.0,1758.0,1727.0,1755.0,1765.0,1747.0,-124.82228088378906,-7.806263446807861,-50.45802307128906,Left
2185.43505859375,56080,1,1747.0,1751.0,1757.0,1763.0,1751.0,1753.0,1764.0,1751.0,-124.82228088378906,-7.806263446807861,-50.45802307128906,Left
2187.43505859375,56080,1,1763.0,1757.0,1766.0,1758.0,1753.0,1753.0,1759.0,1747.0,-124.82228088378906,-7.806263446807861,-50.45802307128906,Left
2189.43505859375,56080,1,1767.0,1762.0,1756.0,1759.0,1747.0,1753.0,1757.0,1752.0,-124.82228088378906,-7.806263446807861,-50.45802307128906,Left
2181.92822265625,56081,1,1757.0,1766.0,1756.0,1761.0,1750.0,1753.0,1763.0,1751.0,-124.82228088378906,-7.806263446807861,-50.45802307128906,Left
2183.92822265625,56081,1,1763.0,1766.0,1757.0,1775.0,1759.0,1753.0,1764.0,1755.0,-124.82228088378906,-7.806263446807861,-50.45802307128906,Left
2185.92822265625,56081,1,1755.0,1762.0,1759.0,1762.0,1747.0,1752.0,1758.0,1751.0,-124.82228088378906,-7.806263446807861,-50.45802307128906,Left
2187.92822265625,56081,1,1753.0,1756.0,1757.0,1756.0,1741.0,1753.0,1764.0,1745.0,-124.82228088378906,-7.806263446807861,-50.45802307128906,Left
2189.92822265625,56081,1,1751.0,1758.0,1757.0,1763.0,1735.0,1753.0,1758.0,1749.0,-124.61262512207031,-7.844059944152832,-50.78701400756836,Left
2182.674072265625,56082,1,1753.0,1762.0,1757.0,1755.0,1749.0,1755.0,1763.0,1743.0,-124.61262512207031,-7.844059944152832,-50.78701400756836,Left
2184.674072265625,56082,1,1769.0,1765.0,1756.0,1763.0,1766.0,1752.0,1761.0,1755.0,-124.61262512207031,-7.844059944152832,-50.78701400756836,Left
2186.674072265625,56082,1,1767.0,1774.0,1750.0,1765.0,1779.0,1751.0,1759.0,1755.0,-124.61262512207031,-7.844059944152832,-50.78701400756836,Left
2188.674072265625,56082,1,1769.0,1767.0,1764.0,1763.0,1765.0,1750.0,1757.0,1752.0,-124.61262512207031,-7.844059944152832,-50.78701400756836,Left
2190.674072265625,56082,1,1759.0,1763.0,1756.0,1761.0,1752.0,1753.0,1764.0,1753.0,-124.61262512207031,-7.844059944152832,-50.78701400756836,Left
2183.44921875,56083,1,1753.0,1759.0,1755.0,1764.0,1748.0,1753.0,1764.0,1753.0,-124.61262512207031,-7.844059944152832,-50.78701400756836,Left
2185.44921875,56083,1,1758.0,1753.0,1753.0,1721.0,1733.0,1753.0,1755.0,1749.0,-124.61262512207031,-7.844059944152832,-50.78701400756836,Left
2187.44921875,56083,1,1752.0,1757.0,1755.0,1757.0,1740.0,1751.0,1763.0,1742.0,-124.61262512207031,-7.844059944152832,-50.78701400756836,Left
2189.44921875,56083,1,1748.0,1759.0,1758.0,1755.0,1747.0,1753.0,1764.0,1749.0,-124.61262512207031,-7.844059944152832,-50.78701400756836,Left
2191.44921875,56083,1,1752.0,1758.0,1748.0,1763.0,1763.0,1749.0,1757.0,1755.0,-124.61262512207031,-7.844059944152832,-50.78701400756836,Left
2183.96630859375,56084,1,1765.0,1767.0,1757.0,1767.0,1770.0,1752.0,1763.0,1753.0,-124.61262512207031,-7.844059944152832,-50.78701400756836,Left
2185.96630859375,56084,1,1756.0,1762.0,1757.0,1769.0,1769.0,1749.0,1765.0,1755.0,-124.61262512207031,-7.844059944152832,-50.78701400756836,Left
2187.96630859375,56084,1,1763.0,1755.0,1757.0,1755.0,1739.0,1752.0,1763.0,1739.0,-124.61262512207031,-7.844059944152832,-50.78701400756836,Left
2189.96630859375,56084,1,1753.0,1753.0,1755.0,1757.0,1739.0,1753.0,1763.0,1749.0,-124.61262512207031,-7.844059944152832,-50.78701400756836,Left
2191.96630859375,56084,1,1743.0,1762.0,1757.0,1757.0,1747.0,1751.0,1765.0,1749.0,-124.61262512207031,-7.844059944152832,-50.78701400756836,Left
2184.580078125,56085,1,1755.0,1762.0,1757.0,1754.0,1749.0,1753.0,1764.0,1741.0,-124.61262512207031,-7.844059944152832,-50.78701400756836,Left
2186.580078125,56085,1,1773.0,1771.0,1763.0,1764.0,1767.0,1753.0,1765.0,1763.0,-124.61262512207031,-7.844059944152832,-50.78701400756836,Left
2188.580078125,56085,1,1767.0,1774.0,1765.0,1767.0,1766.0,1750.0,1763.0,1753.0,-124.61262512207031,-7.844059944152832,-50.78701400756836,Left
2190.580078125,56085,1,1753.0,1768.0,1757.0,1759.0,1767.0,1753.0,1763.0,1753.0,-124.61262512207031,-7.844059944152832,-50.78701400756836,Left
2192.580078125,56085,1,1776.0,1767.0,1765.0,1762.0,1765.0,1751.0,1765.0,1759.0,-124.61262512207031,-7.844059944152832,-50.78701400756836,Left
2184.997314453125,56086,1,1757.0,1757.0,1753.0,1763.0,1745.0,1753.0,1761.0,1747.0,-124.61262512207031,-7.844059944152832,-50.78701400756836,Left
2186.997314453125,56086,1,1753.0,1756.0,1757.0,1757.0,1746.0,1753.0,1757.0,1749.0,-124.61262512207031,-7.844059944152832,-50.78701400756836,Left
2188.997314453125,56086,1,1755.0,1756.0,1753.0,1757.0,1741.0,1749.0,1763.0,1749.0,-124.61262512207031,-7.844059944152832,-50.78701400756836,Left
2190.997314453125,56086,1,1757.0,1759.0,1761.0,1762.0,1751.0,1753.0,1755.0,1750.0,-124.61262512207031,-7.844059944152832,-50.78701400756836,Left
2192.997314453125,56086,1,1751.0,1755.0,1757.0,1757.0,1749.0,1749.0,1757.0,1747.0,-124.61262512207031,-7.844059944152832,-50.78701400756836,Left
2185.404296875,56087,1,1762.0,1767.0,1757.0,1757.0,1753.0,1752.0,1759.0,1747.0,-124.61262512207031,-7.844059944152832,-50.78701400756836,Left
2187.404296875,56087,1,1751.0,1764.0,1757.0,1758.0,1757.0,1753.0,1763.0,1749.0,-124.61262512207031,-7.844059944152832,-50.78701400756836,Left
2189.404296875,56087,1,1765.0,1763.0,1757.0,1762.0,1756.0,1755.0,1763.0,1752.0,-124.61262512207031,-7.844059944152832,-50.78701400756836,Left
2191.404296875,56087,1,1775.0,1764.0,1762.0,1756.0,1755.0,1755.0,1757.0,1751.0,-124.61262512207031,-7.844059944152832,-50.78701400756836,Left
2193.404296875,56087,1,1757.0,1763.0,1757.0,1757.0,1746.0,1752.0,1764.0,1750.0,-124.61262512207031,-7.844059944152832,-50.78701400756836,Left
2185.965087890625,56088,1,1759.0,1759.0,1759.0,1757.0,1746.0,1755.0,1763.0,1752.0,-124.61262512207031,-7.844059944152832,-50.78701400756836,Left
2187.965087890625,56088,1,1757.0,1758.0,1755.0,1759.0,1762.0,1751.0,1761.0,1755.0,-124.61262512207031,-7.844059944152832,-50.78701400756836,Left
2189.965087890625,56088,1,1775.0,1763.0,1755.0,1762.0,1763.0,1753.0,1763.0,1753.0,-124.50751495361328,-7.848321914672852,-50.95138168334961,Left
2191.965087890625,56088,1,1771.0,1767.0,1756.0,1757.0,1757.0,1753.0,1763.0,1750.0,-124.50751495361328,-7.848321914672852,-50.95138168334961,Left
2193.965087890625,56088,1,1759.0,1767.0,1755.0,1755.0,1754.0,1754.0,1757.0,1752.0,-124.50751495361328,-7.848321914672852,-50.95138168334961,Left
2186.37109375,56089,1,1759.0,1763.0,1763.0,1757.0,1753.0,1753.0,1765.0,1747.0,-124.50751495361328,-7.848321914672852,-50.95138168334961,Left
2188.37109375,56089,1,1759.0,1766.0,1759.0,1757.0,1750.0,1751.0,1763.0,1751.0,-124.50751495361328,-7.848321914672852,-50.95138168334961,Left
2190.37109375,56089,1,1758.0,1765.0,1759.0,1757.0,1751.0,1754.0,1761.0,1749.0,-124.50751495361328,-7.848321914672852,-50.95138168334961,Left
2192.37109375,56089,1,1762.0,1763.0,1754.0,1753.0,1749.0,1753.0,1762.0,1749.0,-124.50751495361328,-7.848321914672852,-50.95138168334961,Left
2194.37109375,56089,1,1771.0,1757.0,1754.0,1763.0,1749.0,1752.0,1758.0,1751.0,-124.50751495361328,-7.848321914672852,-50.95138168334961,Left
2186.775146484375,56090,1,1753.0,1758.0,1755.0,1757.0,1752.0,1755.0,1764.0,1749.0,-124.50751495361328,-7.848321914672852,-50.95138168334961,Left
2188.775146484375,56090,1,1757.0,1754.0,1759.0,1755.0,1762.0,1752.0,1761.0,1749.0,-124.50751495361328,-7.848321914672852,-50.95138168334961,Left
2190.775146484375,56090,1,1752.0,1763.0,1755.0,1759.0,1753.0,1753.0,1763.0,1751.0,-124.50751495361328,-7.848321914672852,-50.95138168334961,Left
2192.775146484375,56090,1,1752.0,1757.0,1755.0,1755.0,1745.0,1754.0,1763.0,1747.0,-124.50751495361328,-7.848321914672852,-50.95138168334961,Left
2194.775146484375,56090,1,1762.0,1763.0,1759.0,1767.0,1755.0,1753.0,1764.0,1755.0,-124.50751495361328,-7.848321914672852,-50.95138168334961,Left
2187.240478515625,56091,1,1766.0,1765.0,1755.0,1761.0,1748.0,1752.0,1763.0,1753.0,-124.50751495361328,-7.848321914672852,-50.95138168334961,Left
2189.240478515625,56091,1,1756.0,1768.0,1757.0,1755.0,1753.0,1741.0,1750.0,1747.0,-124.50751495361328,-7.848321914672852,-50.95138168334961,Left
2191.240478515625,56091,1,1757.0,1765.0,1757.0,1763.0,1757.0,1751.0,1763.0,1749.0,-124.50751495361328,-7.848321914672852,-50.95138168334961,Left
2193.240478515625,56091,1,1764.0,1766.0,1757.0,1759.0,1748.0,1751.0,1757.0,1753.0,-124.50751495361328,-7.848321914672852,-50.95138168334961,Left
2195.240478515625,56091,1,1763.0,1755.0,1756.0,1758.0,1752.0,1755.0,1762.0,1750.0,-124.50751495361328,-7.848321914672852,-50.95138168334961,Left
2187.581298828125,56092,1,1762.0,1740.0,1759.0,1757.0,1764.0,1749.0,1764.0,1750.0,-124.50751495361328,-7.848321914672852,-50.95138168334961,Left
2189.581298828125,56092,1,1756.0,1759.0,1753.0,1757.0,1753.0,1753.0,1754.0,1750.0,-124.50751495361328,-7.848321914672852,-50.95138168334961,Left
2191.581298828125,56092,1,1765.0,1762.0,1757.0,1768.0,1763.0,1753.0,1757.0,1753.0,-124.50751495361328,-7.848321914672852,-50.95138168334961,Left
2193.581298828125,56092,1,1765.0,1758.0,1748.0,1758.0,1748.0,1751.0,1765.0,1753.0,-124.50751495361328,-7.848321914672852,-50.95138168334961,Left
2195.581298828125,56092,1,1769.0,1762.0,1758.0,1759.0,1755.0,1753.0,1761.0,1748.0,-124.50751495361328,-7.848321914672852,-50.95138168334961,Left
2187.8203125,56093,1,1762.0,1769.0,1755.0,1755.0,1749.0,1753.0,1765.0,1752.0,-124.50751495361328,-7.848321914672852,-50.95138168334961,Left
2189.8203125,56093,1,1752.0,1761.0,1753.0,1755.0,1751.0,1752.0,1763.0,1751.0,-124.50751495361328,-7.848321914672852,-50.95138168334961,Left
2191.8203125,56093,1,1751.0,1761.0,1757.0,1763.0,1751.0,1755.0,1757.0,1737.0,-124.50751495361328,-7.848321914672852,-50.95138168334961,Left
2193.8203125,56093,1,1759.0,1759.0,1762.0,1754.0,1756.0,1753.0,1765.0,1749.0,-124.50751495361328,-7.848321914672852,-50.95138168334961,Left
2195.8203125,56093,1,1763.0,1755.0,1755.0,1756.0,1747.0,1751.0,1759.0,1753.0,-124.50751495361328,-7.848321914672852,-50.95138168334961,Left
2188.05615234375,56094,1,1792.0,1755.0,1753.0,1757.0,1757.0,1755.0,1763.0,1747.0,-124.50751495361328,-7.848321914672852,-50.95138168334961,Left
2190.05615234375,56094,1,1763.0,1763.0,1763.0,1762.0,1761.0,1753.0,1757.0,1753.0,-124.50751495361328,-7.848321914672852,-50.95138168334961,Left
2192.05615234375,56094,1,1763.0,1763.0,1765.0,1763.0,1755.0,1755.0,1759.0,1751.0,-124.50751495361328,-7.848321914672852,-50.95138168334961,Left
2194.05615234375,56094,1,1753.0,1765.0,1752.0,1757.0,1754.0,1755.0,1763.0,1742.0,-124.50751495361328,-7.848321914672852,-50.95138168334961,Left
2196.05615234375,56094,1,1758.0,1768.0,1758.0,1759.0,1753.0,1755.0,1763.0,1753.0,-124.50923919677734,-7.89044189453125,-50.93811798095703,Left
2188.2900390625,56095,1,1763.0,1767.0,1750.0,1757.0,1753.0,1753.0,1765.0,1736.0,-124.50923919677734,-7.89044189453125,-50.93811798095703,Left
2190.2900390625,56095,1,1769.0,1757.0,1752.0,1756.0,1741.0,1747.0,1751.0,1748.0,-124.50923919677734,-7.89044189453125,-50.93811798095703,Left
2192.2900390625,56095,1,1767.0,1763.0,1755.0,1758.0,1755.0,1753.0,1759.0,1753.0,-124.50923919677734,-7.89044189453125,-50.93811798095703,Left
2194.2900390625,56095,1,1752.0,1757.0,1757.0,1755.0,1752.0,1753.0,1765.0,1747.0,-124.50923919677734,-7.89044189453125,-50.93811798095703,Left
2196.2900390625,56095,1,1757.0,1758.0,1757.0,1757.0,1752.0,1753.0,1764.0,1749.0,-124.50923919677734,-7.89044189453125,-50.93811798095703,Left
2188.543212890625,56096,1,1740.0,1759.0,1757.0,1759.0,1749.0,1752.0,1759.0,1751.0,-124.50923919677734,-7.89044189453125,-50.93811798095703,Left
2190.543212890625,56096,1,1765.0,1761.0,1752.0,1763.0,1751.0,1751.0,1765.0,1741.0,-124.50923919677734,-7.89044189453125,-50.93811798095703,Left
2192.543212890625,56096,1,1767.0,1757.0,1757.0,1763.0,1763.0,1751.0,1762.0,1754.0,-124.50923919677734,-7.89044189453125,-50.93811798095703,Left
2194.543212890625,56096,1,1771.0,1765.0,1757.0,1775.0,1765.0,1753.0,1763.0,1755.0,-124.50923919677734,-7.89044189453125,-50.93811798095703,Left
2196.543212890625,56096,1,1771.0,1769.0,1764.0,1764.0,1765.0,1753.0,1763.0,1755.0,-124.50923919677734,-7.89044189453125,-50.93811798095703,Left
2188.775390625,56097,1,1750.0,1771.0,1761.0,1746.0,1737.0,1743.0,1747.0,1747.0,-124.50923919677734,-7.89044189453125,-50.93811798095703,Left
2190.775390625,56097,1,1758.0,1757.0,1752.0,1756.0,1748.0,1753.0,1759.0,1747.0,-124.50923919677734,-7.89044189453125,-50.93811798095703,Left
2192.775390625,56097,1,1752.0,1743.0,1751.0,1755.0,1745.0,1753.0,1763.0,1746.0,-124.50923919677734,-7.89044189453125,-50.93811798095703,Left
2194.775390625,56097,1,1753.0,1755.0,1753.0,1771.0,1743.0,1753.0,1762.0,1751.0,-124.50923919677734,-7.89044189453125,-50.93811798095703,Left
2196.775390625,56097,1,1753.0,1759.0,1755.0,1754.0,1749.0,1753.0,1763.0,1750.0,-124.50923919677734,-7.89044189453125,-50.93811798095703,Left
2189.012939453125,56098,1,1763.0,1764.0,1755.0,1763.0,1751.0,1753.0,1763.0,1749.0,-124.50923919677734,-7.89044189453125,-50.93811798095703,Left
2191.012939453125,56098,1,1764.0,1758.0,1756.0,1764.0,1755.0,1753.0,1757.0,1752.0,-124.50923919677734,-7.89044189453125,-50.93811798095703,Left
2193.012939453125,56098,1,1766.0,1763.0,1764.0,1763.0,1763.0,1755.0,1765.0,1751.0,-124.50923919677734,-7.89044189453125,-50.93811798095703,Left
2195.012939453125,56098,1,1764.0,1764.0,1757.0,1757.0,1752.0,1752.0,1763.0,1751.0,-124.50923919677734,-7.89044189453125,-50.93811798095703,Left
2197.012939453125,56098,1,1752.0,1762.0,1755.0,1753.0,1736.0,1753.0,1761.0,1747.0,-124.50923919677734,-7.89044189453125,-50.93811798095703,Left
2189.2451171875,56099,1,1749.0,1758.0,1755.0,1751.0,1736.0,1754.0,1765.0,1751.0,-124.50923919677734,-7.89044189453125,-50.93811798095703,Left
2191.2451171875,56099,1,1764.0,1763.0,1757.0,1757.0,1753.0,1749.0,1755.0,1750.0,-124.50923919677734,-7.89044189453125,-50.93811798095703,Left
2193.2451171875,56099,1,1758.0,1763.0,1755.0,1759.0,1750.0,1755.0,1762.0,1752.0,-124.50923919677734,-7.89044189453125,-50.93811798095703,Left
2195.2451171875,56099,1,1767.0,1767.0,1763.0,1767.0,1767.0,1752.0,1763.0,1753.0,-124.50923919677734,-7.89044189453125,-50.93811798095703,Left
2197.2451171875,56099,1,1773.0,1770.0,1761.0,1764.0,1778.0,1752.0,1763.0,1754.0,-124.50923919677734,-7.89044189453125,-50.93811798095703,Left
2189.481201171875,56100,1,1767.0,1769.0,1762.0,1767.0,1773.0,1754.0,1756.0,1759.0,-124.50923919677734,-7.89044189453125,-50.93811798095703,Left
2191.481201171875,56100,1,1775.0,1759.0,1759.0,1762.0,1752.0,1753.0,1762.0,1753.0,-124.50923919677734,-7.89044189453125,-50.93811798095703,Left
2193.481201171875,56100,1,1767.0,1751.0,1757.0,1763.0,1746.0,1753.0,1759.0,1747.0,-124.50923919677734,-7.89044189453125,-50.93811798095703,Left
2195.481201171875,56100,1,1759.0,1761.0,1757.0,1763.0,1747.0,1752.0,1759.0,1757.0,-124.50923919677734,-7.89044189453125,-50.93811798095703,Left
2197.481201171875,56100,1,1753.0,1764.0,1756.0,1761.0,1755.0,1752.0,1763.0,1751.0,-124.50923919677734,-7.89044189453125,-50.93811798095703,Left
2189.777099609375,56101,1,1755.0,1768.0,1755.0,1751.0,1753.0,1749.0,1763.0,1748.0,-124.50923919677734,-7.89044189453125,-50.93811798095703,Left
2191.777099609375,56101,1,1761.0,1763.0,1753.0,1757.0,1747.0,1755.0,1765.0,1749.0,-124.50923919677734,-7.89044189453125,-50.93811798095703,Left
2193.777099609375,56101,1,1759.0,1758.0,1752.0,1755.0,1739.0,1753.0,1763.0,1749.0,-124.51032257080078,-7.910737037658691,-50.845829010009766,Left
2195.777099609375,56101,1,1753.0,1754.0,1755.0,1757.0,1743.0,1752.0,1757.0,1748.0,-124.51032257080078,-7.910737037658691,-50.845829010009766,Left
2197.777099609375,56101,1,1754.0,1759.0,1757.0,1757.0,1751.0,1755.0,1763.0,1752.0,-124.51032257080078,-7.910737037658691,-50.845829010009766,Left
2190.04736328125,56102,1,1759.0,1759.0,1755.0,1751.0,1751.0,1754.0,1759.0,1749.0,-124.51032257080078,-7.910737037658691,-50.845829010009766,Left
2192.04736328125,56102,1,1763.0,1755.0,1758.0,1763.0,1753.0,1755.0,1756.0,1748.0,-124.51032257080078,-7.910737037658691,-50.845829010009766,Left
2194.04736328125,56102,1,1765.0,1763.0,1755.0,1756.0,1755.0,1752.0,1763.0,1748.0,-124.51032257080078,-7.910737037658691,-50.845829010009766,Left
2196.04736328125,56102,1,1759.0,1769.0,1759.0,1757.0,1756.0,1748.0,1763.0,1750.0,-124.51032257080078,-7.910737037658691,-50.845829010009766,Left
2198.04736328125,56102,1,1763.0,1767.0,1756.0,1757.0,1754.0,1750.0,1764.0,1749.0,-124.51032257080078,-7.910737037658691,-50.845829010009766,Left
2190.287109375,56103,1,1757.0,1763.0,1757.0,1758.0,1743.0,1753.0,1763.0,1751.0,-124.51032257080078,-7.910737037658691,-50.845829010009766,Left
2192.287109375,56103,1,1757.0,1767.0,1755.0,1755.0,1753.0,1747.0,1763.0,1748.0,-124.51032257080078,-7.910737037658691,-50.845829010009766,Left
2194.287109375,56103,1,1757.0,1763.0,1753.0,1756.0,1755.0,1750.0,1763.0,1748.0,-124.51032257080078,-7.910737037658691,-50.845829010009766,Left
2196.287109375,56103,1,1774.0,1759.0,1756.0,1757.0,1757.0,1753.0,1763.0,1753.0,-124.51032257080078,-7.910737037658691,-50.845829010009766,Left
2198.287109375,56103,1,1771.0,1765.0,1755.0,1764.0,1757.0,1752.0,1764.0,1756.0,-124.51032257080078,-7.910737037658691,-50.845829010009766,Left
2190.522216796875,56104,1,1761.0,1759.0,1756.0,1757.0,1755.0,1755.0,1764.0,1751.0,-124.51032257080078,-7.910737037658691,-50.845829010009766,Left
2192.522216796875,56104,1,1753.0,1766.0,1756.0,1759.0,1771.0,1755.0,1763.0,1752.0,-124.51032257080078,-7.910737037658691,-50.845829010009766,Left
2194.522216796875,56104,1,1752.0,1759.0,1757.0,1759.0,1758.0,1753.0,1756.0,1749.0,-124.51032257080078,-7.910737037658691,-50.845829010009766,Left
2196.522216796875,56104,1,1755.0,1765.0,1755.0,1759.0,1741.0,1753.0,1763.0,1751.0,-124.51032257080078,-7.910737037658691,-50.845829010009766,Left
2198.522216796875,56104,1,1767.0,1765.0,1759.0,1757.0,1753.0,1749.0,1763.0,1749.0,-124.51032257080078,-7.910737037658691,-50.845829010009766,Left
2200.4970703125,56105,1,1763.0,1766.0,1759.0,1756.0,1752.0,1753.0,1763.0,1753.0,-124.51032257080078,-7.910737037658691,-50.845829010009766,Left
2202.4970703125,56105,1,1757.0,1764.0,1767.0,1758.0,1755.0,1754.0,1763.0,1751.0,-124.51032257080078,-7.910737037658691,-50.845829010009766,Left
2204.4970703125,56105,1,1755.0,1757.0,1757.0,1757.0,1746.0,1752.0,1759.0,1749.0,-124.51032257080078,-7.910737037658691,-50.845829010009766,Left
2206.4970703125,56105,1,1743.0,1753.0,1753.0,1758.0,1741.0,1753.0,1757.0,1747.0,-124.51032257080078,-7.910737037658691,-50.845829010009766,Left
2208.4970703125,56105,1,1749.0,1753.0,1754.0,1755.0,1750.0,1752.0,1763.0,1749.0,-124.51032257080078,-7.910737037658691,-50.845829010009766,Left
2200.775146484375,56106,1,1771.0,1763.0,1754.0,1764.0,1751.0,1751.0,1759.0,1753.0,-124.51032257080078,-7.910737037658691,-50.845829010009766,Left
2202.775146484375,56106,1,1763.0,1765.0,1759.0,1756.0,1750.0,1752.0,1763.0,1757.0,-124.51032257080078,-7.910737037658691,-50.845829010009766,Left
2204.775146484375,56106,1,1749.0,1771.0,1759.0,1765.0,1759.0,1753.0,1763.0,1751.0,-124.51032257080078,-7.910737037658691,-50.845829010009766,Left
2206.775146484375,56106,1,1767.0,1769.0,1756.0,1759.0,1755.0,1753.0,1759.0,1751.0,-124.51032257080078,-7.910737037658691,-50.845829010009766,Left
2208.775146484375,56106,1,1768.0,1771.0,1763.0,1764.0,1765.0,1754.0,1762.0,1751.0,-124.51032257080078,-7.910737037658691,-50.845829010009766,Left
2229.653076171875,56107,1,1759.0,1765.0,1758.0,1753.0,1755.0,1749.0,1763.0,1748.0,-124.51032257080078,-7.910737037658691,-50.845829010009766,Left
2231.653076171875,56107,1,1762.0,1767.0,1757.0,1755.0,1723.0,1754.0,1762.0,1751.0,-124.51032257080078,-7.910737037658691,-50.845829010009766,Left
2233.653076171875,56107,1,1768.0,1765.0,1755.0,1762.0,1749.0,1753.0,1763.0,1753.0,-124.51032257080078,-7.910737037658691,-50.845829010009766,Left
2235.653076171875,56107,1,1758.0,1764.0,1755.0,1761.0,1750.0,1751.0,1764.0,1752.0,-124.51032257080078,-7.910737037658691,-50.845829010009766,Left
2237.653076171875,56107,1,1751.0,1756.0,1756.0,1764.0,1743.0,1751.0,1757.0,1749.0,-124.51395416259766,-7.963545322418213,-50.74553298950195,Left
2236.51025390625,56108,1,1739.0,1752.0,1755.0,1757.0,1735.0,1754.0,1764.0,1749.0,-124.51395416259766,-7.963545322418213,-50.74553298950195,Left
2238.51025390625,56108,1,1758.0,1750.0,1755.0,1759.0,1759.0,1751.0,1763.0,1755.0,-124.51395416259766,-7.963545322418213,-50.74553298950195,Left
2240.51025390625,56108,1,1756.0,1765.0,1759.0,1763.0,1755.0,1751.0,1763.0,1753.0,-124.51395416259766,-7.963545322418213,-50.74553298950195,Left
2242.51025390625,56108,1,1770.0,1772.0,1756.0,1757.0,1803.0,1752.0,1762.0,1757.0,-124.51395416259766,-7.963545322418213,-50.74553298950195,Left
2244.51025390625,56108,1,1771.0,1773.0,1762.0,1765.0,1771.0,1753.0,1764.0,1755.0,-124.51395416259766,-7.963545322418213,-50.74553298950195,Left
2237.2060546875,56109,1,1759.0,1767.0,1758.0,1756.0,1752.0,1753.0,1763.0,1749.0,-124.51395416259766,-7.963545322418213,-50.74553298950195,Left
2239.2060546875,56109,1,1764.0,1759.0,1759.0,1758.0,1753.0,1752.0,1763.0,1751.0,-124.51395416259766,-7.963545322418213,-50.74553298950195,Left
2241.2060546875,56109,1,1759.0,1765.0,1758.0,1763.0,1740.0,1755.0,1755.0,1749.0,-124.51395416259766,-7.963545322418213,-50.74553298950195,Left
2243.2060546875,56109,1,1747.0,1757.0,1755.0,1753.0,1747.0,1753.0,1763.0,1743.0,-124.51395416259766,-7.963545322418213,-50.74553298950195,Left
2245.2060546875,56109,1,1770.0,1755.0,1755.0,1763.0,1750.0,1752.0,1763.0,1748.0,-124.51395416259766,-7.963545322418213,-50.74553298950195,Left
2237.61328125,56110,1,1755.0,1763.0,1755.0,1764.0,1765.0,1749.0,1763.0,1747.0,-124.51395416259766,-7.963545322418213,-50.74553298950195,Left
2239.61328125,56110,1,1765.0,1763.0,1755.0,1764.0,1757.0,1752.0,1761.0,1751.0,-124.51395416259766,-7.963545322418213,-50.74553298950195,Left
2241.61328125,56110,1,1734.0,1757.0,1756.0,1757.0,1748.0,1751.0,1763.0,1747.0,-124.51395416259766,-7.963545322418213,-50.74553298950195,Left
2243.61328125,56110,1,1752.0,1765.0,1757.0,1759.0,1741.0,1753.0,1759.0,1749.0,-124.51395416259766,-7.963545322418213,-50.74553298950195,Left
2245.61328125,56110,1,1753.0,1767.0,1751.0,1755.0,1741.0,1755.0,1763.0,1752.0,-124.51395416259766,-7.963545322418213,-50.74553298950195,Left
2238.114013671875,56111,1,1767.0,1763.0,1762.0,1764.0,1752.0,1751.0,1756.0,1757.0,-124.51395416259766,-7.963545322418213,-50.74553298950195,Left
2240.114013671875,56111,1,1752.0,1763.0,1759.0,1756.0,1765.0,1752.0,1763.0,1749.0,-124.51395416259766,-7.963545322418213,-50.74553298950195,Left
2242.114013671875,56111,1,1759.0,1765.0,1759.0,1755.0,1755.0,1752.0,1763.0,1753.0,-124.51395416259766,-7.963545322418213,-50.74553298950195,Left
2244.114013671875,56111,1,1754.0,1755.0,1753.0,1761.0,1717.0,1753.0,1759.0,1747.0,-124.51395416259766,-7.963545322418213,-50.74553298950195,Left
2246.114013671875,56111,1,1756.0,1757.0,1759.0,1757.0,1768.0,1754.0,1762.0,1763.0,-124.51395416259766,-7.963545322418213,-50.74553298950195,Left
2248.732421875,56112,1,1750.0,1751.0,1753.0,1756.0,1753.0,1755.0,1764.0,1740.0,-124.51395416259766,-7.963545322418213,-50.74553298950195,Left
2250.732421875,56112,1,1749.0,1755.0,1754.0,1757.0,1740.0,1752.0,1763.0,1751.0,-124.51395416259766,-7.963545322418213,-50.74553298950195,Left
2252.732421875,56112,1,1757.0,1768.0,1756.0,1759.0,1749.0,1755.0,1763.0,1746.0,-124.51395416259766,-7.963545322418213,-50.74553298950195,Left
2254.732421875,56112,1,1763.0,1763.0,1755.0,1757.0,1755.0,1753.0,1765.0,1757.0,-124.51395416259766,-7.963545322418213,-50.74553298950195,Left
2256.732421875,56112,1,1770.0,1767.0,1758.0,1757.0,1757.0,1752.0,1765.0,1749.0,-124.51395416259766,-7.963545322418213,-50.74553298950195,Left
2267.667236328125,56113,1,1764.0,1755.0,1758.0,1757.0,1765.0,1748.0,1763.0,1755.0,-124.51395416259766,-7.963545322418213,-50.74553298950195,Left
2269.667236328125,56113,1,1757.0,1765.0,1763.0,1754.0,1762.0,1752.0,1755.0,1749.0,-124.51395416259766,-7.963545322418213,-50.74553298950195,Left
2271.667236328125,56113,1,1751.0,1765.0,1759.0,1763.0,1759.0,1752.0,1764.0,1745.0,-124.51395416259766,-7.963545322418213,-50.74553298950195,Left
2273.667236328125,56113,1,1764.0,1765.0,1757.0,1764.0,1749.0,1753.0,1757.0,1747.0,-124.51395416259766,-7.963545322418213,-50.74553298950195,Left
2275.667236328125,56113,1,1767.0,1767.0,1762.0,1761.0,1754.0,1751.0,1758.0,1747.0,-124.51395416259766,-7.963545322418213,-50.74553298950195,Left
2270.494140625,56114,1,1767.0,1763.0,1759.0,1762.0,1753.0,1755.0,1765.0,1751.0,-124.51395416259766,-7.963545322418213,-50.74553298950195,Left
2272.494140625,56114,1,1757.0,1753.0,1755.0,1758.0,1741.0,1749.0,1759.0,1751.0,-124.51395416259766,-7.963545322418213,-50.74553298950195,Left
2274.494140625,56114,1,1759.0,1756.0,1763.0,1756.0,1753.0,1753.0,1763.0,1751.0,-124.58792114257812,-8.126595497131348,-50.7167854309082,Left
2276.494140625,56114,1,1741.0,1773.0,1757.0,1766.0,1736.0,1752.0,1736.0,1743.0,-124.58792114257812,-8.126595497131348,-50.7167854309082,Left
2278.494140625,56114,1,1749.0,1779.0,1755.0,1773.0,1763.0,1752.0,1763.0,1746.0,-124.58792114257812,-8.126595497131348,-50.7167854309082,Left
2353.265380859375,56115,1,1756.0,1763.0,1755.0,1757.0,1757.0,1753.0,1763.0,1755.0,-124.58792114257812,-8.126595497131348,-50.7167854309082,Left
2355.265380859375,56115,1,1757.0,1748.0,1756.0,1737.0,1762.0,1752.0,1763.0,1753.0,-124.58792114257812,-8.126595497131348,-50.7167854309082,Left
2357.265380859375,56115,1,1766.0,1743.0,1752.0,1724.0,1767.0,1753.0,1756.0,1754.0,-124.58792114257812,-8.126595497131348,-50.7167854309082,Left
2359.265380859375,56115,1,1767.0,1785.0,1767.0,1785.0,1767.0,1753.0,1759.0,1757.0,-124.58792114257812,-8.126595497131348,-50.7167854309082,Left
2361.265380859375,56115,1,1753.0,1763.0,1766.0,1762.0,1755.0,1747.0,1764.0,1756.0,-124.58792114257812,-8.126595497131348,-50.7167854309082,Left
2353.9873046875,56116,1,1758.0,1734.0,1757.0,1740.0,1741.0,1751.0,1756.0,1753.0,-124.58792114257812,-8.126595497131348,-50.7167854309082,Left
2355.9873046875,56116,1,1764.0,1739.0,1752.0,1753.0,1735.0,1753.0,1763.0,1739.0,-124.58792114257812,-8.126595497131348,-50.7167854309082,Left
2357.9873046875,56116,1,1755.0,1789.0,1755.0,1780.0,1745.0,1755.0,1765.0,1749.0,-124.58792114257812,-8.126595497131348,-50.7167854309082,Left
2359.9873046875,56116,1,1752.0,1799.0,1749.0,1783.0,1735.0,1750.0,1763.0,1741.0,-124.58792114257812,-8.126595497131348,-50.7167854309082,Left
2361.9873046875,56116,1,1757.0,1775.0,1752.0,1771.0,1756.0,1753.0,1759.0,1751.0,-124.58792114257812,-8.126595497131348,-50.7167854309082,Left
2354.404296875,56117,1,1759.0,1775.0,1757.0,1756.0,1767.0,1748.0,1765.0,1753.0,-124.58792114257812,-8.126595497131348,-50.7167854309082,Left
2356.404296875,56117,1,1757.0,1745.0,1763.0,1733.0,1752.0,1748.0,1756.0,1755.0,-124.58792114257812,-8.126595497131348,-50.7167854309082,Left
2358.404296875,56117,1,1764.0,1752.0,1753.0,1757.0,1751.0,1755.0,1757.0,1749.0,-124.58792114257812,-8.126595497131348,-50.7167854309082,Left
2360.404296875,56117,1,1765.0,1725.0,1759.0,1757.0,1747.0,1753.0,1764.0,1753.0,-124.58792114257812,-8.126595497131348,-50.7167854309082,Left
2362.404296875,56117,1,1763.0,1778.0,1763.0,1789.0,1753.0,1752.0,1764.0,1752.0,-124.58792114257812,-8.126595497131348,-50.7167854309082,Left
2355.12109375,56118,1,1769.0,1773.0,1757.0,1762.0,1753.0,1755.0,1759.0,1743.0,-124.58792114257812,-8.126595497131348,-50.7167854309082,Left
2357.12109375,56118,1,1747.0,1768.0,1751.0,1759.0,1749.0,1753.0,1765.0,1747.0,-124.58792114257812,-8.126595497131348,-50.7167854309082,Left
2359.12109375,56118,1,1758.0,1709.0,1753.0,1716.0,1733.0,1753.0,1763.0,1747.0,-124.58792114257812,-8.126595497131348,-50.7167854309082,Left
2361.12109375,56118,1,1758.0,1715.0,1755.0,1705.0,1745.0,1755.0,1756.0,1755.0,-124.58792114257812,-8.126595497131348,-50.7167854309082,Left
2363.12109375,56118,1,1768.0,1765.0,1765.0,1767.0,1769.0,1751.0,1764.0,1753.0,-124.58792114257812,-8.126595497131348,-50.7167854309082,Left
2355.6962890625,56119,1,1751.0,1769.0,1757.0,1767.0,1768.0,1753.0,1764.0,1750.0,-124.58792114257812,-8.126595497131348,-50.7167854309082,Left
2357.6962890625,56119,1,1774.0,1824.0,1757.0,1829.0,1781.0,1751.0,1765.0,1742.0,-124.58792114257812,-8.126595497131348,-50.7167854309082,Left
2359.6962890625,56119,1,1763.0,1815.0,1763.0,1815.0,1769.0,1755.0,1764.0,1755.0,-124.58792114257812,-8.126595497131348,-50.7167854309082,Left
2361.6962890625,56119,1,1783.0,1773.0,1764.0,1771.0,1757.0,1752.0,1763.0,1761.0,-124.58792114257812,-8.126595497131348,-50.7167854309082,Left
2363.6962890625,56119,1,1769.0,1711.0,1753.0,1711.0,1739.0,1753.0,1763.0,1741.0,-124.58792114257812,-8.126595497131348,-50.7167854309082,Left
2356.202392578125,56120,1,1742.0,1706.0,1757.0,1689.0,1724.0,1753.0,1763.0,1765.0,-124.58792114257812,-8.126595497131348,-50.7167854309082,Left
2358.202392578125,56120,1,1747.0,1741.0,1757.0,1763.0,1726.0,1753.0,1765.0,1738.0,-124.58792114257812,-8.126595497131348,-50.7167854309082,Left
2360.202392578125,56120,1,1749.0,1747.0,1741.0,1757.0,1745.0,1753.0,1759.0,1716.0,-124.58792114257812,-8.126595497131348,-50.7167854309082,Left
2362.202392578125,56120,1,1739.0,1775.0,1749.0,1756.0,1765.0,1753.0,1757.0,1694.0,-124.58792114257812,-8.126595497131348,-50.7167854309082,Left
2364.202392578125,56120,1,1773.0,1789.0,1743.0,1768.0,1773.0,1753.0,1751.0,1740.0,-124.91204071044922,-8.303787231445312,-50.686790466308594,Left
2356.716064453125,56121,1,1753.0,1788.0,1781.0,1751.0,1737.0,1751.0,1762.0,1823.0,-124.91204071044922,-8.303787231445312,-50.686790466308594,Left
2358.716064453125,56121,1,1822.0,1774.0,1801.0,1768.0,1753.0,1753.0,1762.0,1861.0,-124.91204071044922,-8.303787231445312,-50.686790466308594,Left
2360.716064453125,56121,1,1779.0,1747.0,1749.0,1742.0,1740.0,1753.0,1764.0,1715.0,-124.91204071044922,-8.303787231445312,-50.686790466308594,Left
2362.716064453125,56121,1,1714.0,1737.0,1771.0,1758.0,1749.0,1752.0,1763.0,1741.0,-124.91204071044922,-8.303787231445312,-50.686790466308594,Left
2364.716064453125,56121,1,1755.0,1754.0,1804.0,1774.0,1749.0,1751.0,1756.0,1736.0,-124.91204071044922,-8.303787231445312,-50.686790466308594,Left
2567.856201171875,56122,1,1767.0,1771.0,1709.0,1764.0,1755.0,1755.0,1763.0,1767.0,-124.91204071044922,-8.303787231445312,-50.686790466308594,Left
2569.856201171875,56122,1,1768.0,1769.0,1704.0,1765.0,1754.0,1753.0,1758.0,1720.0,-124.91204071044922,-8.303787231445312,-50.686790466308594,Left
2571.856201171875,56122,1,1742.0,1765.0,1738.0,1772.0,1751.0,1752.0,1763.0,1734.0,-124.91204071044922,-8.303787231445312,-50.686790466308594,Left
2573.856201171875,56122,1,1743.0,1755.0,1765.0,1763.0,1752.0,1753.0,1758.0,1753.0,-124.91204071044922,-8.303787231445312,-50.686790466308594,Left
2575.856201171875,56122,1,1757.0,1757.0,1765.0,1753.0,1739.0,1751.0,1763.0,1759.0,-124.91204071044922,-8.303787231445312,-50.686790466308594,Left
2568.71923828125,56123,1,1757.0,1772.0,1768.0,1759.0,1753.0,1752.0,1763.0,1753.0,-124.91204071044922,-8.303787231445312,-50.686790466308594,Left
2570.71923828125,56123,1,1787.0,1765.0,1813.0,1768.0,1737.0,1751.0,1763.0,1757.0,-124.91204071044922,-8.303787231445312,-50.686790466308594,Left
2572.71923828125,56123,1,1759.0,1757.0,1756.0,1769.0,1757.0,1753.0,1764.0,1736.0,-124.91204071044922,-8.303787231445312,-50.686790466308594,Left
2574.71923828125,56123,1,1756.0,1783.0,1701.0,1766.0,1761.0,1739.0,1756.0,1741.0,-124.91204071044922,-8.303787231445312,-50.686790466308594,Left
2576.71923828125,56123,1,1757.0,1755.0,1723.0,1756.0,1765.0,1748.0,1762.0,1766.0,-124.91204071044922,-8.303787231445312,-50.686790466308594,Left
2806.978271484375,56124,1,1769.0,1749.0,1715.0,1751.0,1763.0,1751.0,1763.0,1735.0,-124.91204071044922,-8.303787231445312,-50.686790466308594,Left
2808.978271484375,56124,1,1743.0,1784.0,1763.0,1786.0,1776.0,1753.0,1759.0,1721.0,-124.91204071044922,-8.303787231445312,-50.686790466308594,Left
2810.978271484375,56124,1,1736.0,1758.0,1768.0,1757.0,1756.0,1753.0,1759.0,1724.0,-124.91204071044922,-8.303787231445312,-50.686790466308594,Left
2812.978271484375,56124,1,1769.0,1752.0,1791.0,1768.0,1034.0,1753.0,1758.0,1815.0,-124.91204071044922,-8.303787231445312,-50.686790466308594,Left
2814.978271484375,56124,1,1755.0,1723.0,1735.0,1691.0,1897.0,1749.0,1755.0,1783.0,-124.91204071044922,-8.303787231445312,-50.686790466308594,Left
2807.4501953125,56125,1,1749.0,1763.0,1741.0,1770.0,1933.0,1753.0,1759.0,1753.0,-124.91204071044922,-8.303787231445312,-50.686790466308594,Left
2809.4501953125,56125,1,1791.0,1835.0,1775.0,1851.0,1849.0,1752.0,1755.0,1743.0,-124.91204071044922,-8.303787231445312,-50.686790466308594,Left
2811.4501953125,56125,1,1758.0,1739.0,1743.0,1717.0,1803.0,1753.0,1758.0,1739.0,-124.91204071044922,-8.303787231445312,-50.686790466308594,Left
2813.4501953125,56125,1,1749.0,1748.0,1689.0,1721.0,1815.0,1754.0,1764.0,1721.0,-124.91204071044922,-8.303787231445312,-50.686790466308594,Left
2815.4501953125,56125,1,1778.0,1719.0,1753.0,1702.0,1765.0,1752.0,1765.0,1743.0,-124.91204071044922,-8.303787231445312,-50.686790466308594,Left
2807.7890625,56126,1,1768.0,1737.0,1843.0,1763.0,1713.0,1749.0,1757.0,1829.0,-124.91204071044922,-8.303787231445312,-50.686790466308594,Left
2809.7890625,56126,1,1735.0,1727.0,1723.0,1741.0,1719.0,1748.0,1757.0,1722.0,-124.91204071044922,-8.303787231445312,-50.686790466308594,Left
2811.7890625,56126,1,1748.0,1767.0,1759.0,1784.0,1755.0,1755.0,1764.0,1791.0,-124.91204071044922,-8.303787231445312,-50.686790466308594,Left
2813.7890625,56126,1,1737.0,1755.0,1779.0,1751.0,1725.0,1751.0,1756.0,1740.0,-124.91204071044922,-8.303787231445312,-50.686790466308594,Left
2815.7890625,56126,1,1725.0,1810.0,1741.0,1813.0,1750.0,1753.0,1762.0,1661.0,-124.91204071044922,-8.303787231445312,-50.686790466308594,Left
2808.123046875,56127,1,1743.0,1769.0,1683.0,1716.0,1737.0,1752.0,1763.0,1743.0,-124.91204071044922,-8.303787231445312,-50.686790466308594,Left
2810.123046875,56127,1,1785.0,1789.0,1829.0,1781.0,1774.0,1755.0,1759.0,1819.0,-126.25275421142578,-8.261970520019531,-50.974098205566406,Left
2812.123046875,56127,1,1742.0,1735.0,1839.0,1735.0,1734.0,1753.0,1763.0,1805.0,-126.25275421142578,-8.261970520019531,-50.974098205566406,Left
2814.123046875,56127,1,1765.0,1715.0,1654.0,1717.0,1735.0,1751.0,1761.0,1719.0,-126.25275421142578,-8.261970520019531,-50.974098205566406,Left
2816.123046875,56127,1,1739.0,1759.0,1684.0,1763.0,1755.0,1753.0,1746.0,1699.0,-126.25275421142578,-8.261970520019531,-50.974098205566406,Left
2808.4521484375,56128,1,1840.0,1785.0,1798.0,1782.0,1761.0,1753.0,0.0,1783.0,-126.25275421142578,-8.261970520019531,-50.974098205566406,Left
2810.4521484375,56128,1,1772.0,1771.0,1821.0,1772.0,1739.0,1751.0,0.0,1735.0,-126.25275421142578,-8.261970520019531,-50.974098205566406,Left
2812.4521484375,56128,1,1754.0,1753.0,1755.0,1757.0,1737.0,1753.0,0.0,1755.0,-126.25275421142578,-8.261970520019531,-50.974098205566406,Left
2814.4521484375,56128,1,1754.0,1783.0,1769.0,1775.0,1756.0,1752.0,0.0,1755.0,-126.25275421142578,-8.261970520019531,-50.974098205566406,Left
2816.4521484375,56128,1,1768.0,1779.0,1727.0,1765.0,1756.0,1753.0,0.0,1768.0,-126.25275421142578,-8.261970520019531,-50.974098205566406,Left
2808.75537109375,56129,1,1739.0,1767.0,1670.0,1754.0,1751.0,1751.0,0.0,1655.0,-126.25275421142578,-8.261970520019531,-50.974098205566406,Left
2810.75537109375,56129,1,1757.0,1773.0,1810.0,1775.0,1759.0,1753.0,0.0,1817.0,-126.25275421142578,-8.261970520019531,-50.974098205566406,Left
2812.75537109375,56129,1,1781.0,1765.0,1775.0,1761.0,1753.0,1749.0,0.0,1757.0,-126.25275421142578,-8.261970520019531,-50.974098205566406,Left
2814.75537109375,56129,1,1711.0,1769.0,1775.0,1763.0,1755.0,1753.0,0.0,1739.0,-126.25275421142578,-8.261970520019531,-50.974098205566406,Left
2816.75537109375,56129,1,1743.0,1750.0,1683.0,1737.0,1745.0,1755.0,0.0,1725.0,-126.25275421142578,-8.261970520019531,-50.974098205566406,Left
2809.056884765625,56130,1,1771.0,1757.0,1765.0,1757.0,1749.0,1753.0,0.0,1775.0,-126.25275421142578,-8.261970520019531,-50.974098205566406,Left
2811.056884765625,56130,1,1757.0,1747.0,1747.0,1749.0,1746.0,1751.0,0.0,1749.0,-126.25275421142578,-8.261970520019531,-50.974098205566406,Left
2813.056884765625,56130,1,1751.0,1756.0,1738.0,1768.0,1759.0,1752.0,77.0,1723.0,-126.25275421142578,-8.261970520019531,-50.974098205566406,Left
2815.056884765625,56130,1,1707.0,1759.0,1661.0,1754.0,1741.0,1752.0,383.0,1689.0,-126.25275421142578,-8.261970520019531,-50.974098205566406,Left
2817.056884765625,56130,1,1769.0,1765.0,1861.0,1763.0,1755.0,1753.0,623.0,1835.0,-126.25275421142578,-8.261970520019531,-50.974098205566406,Left
2809.359130859375,56131,1,1779.0,1769.0,1843.0,1757.0,1747.0,1753.0,829.0,1699.0,-126.25275421142578,-8.261970520019531,-50.974098205566406,Left
2811.359130859375,56131,1,1747.0,1757.0,1803.0,1737.0,1747.0,1752.0,987.0,1797.0,-126.25275421142578,-8.261970520019531,-50.974098205566406,Left
2813.359130859375,56131,1,1788.0,1784.0,1753.0,1801.0,1716.0,1753.0,1113.0,1754.0,-126.25275421142578,-8.261970520019531,-50.974098205566406,Left
2815.359130859375,56131,1,1755.0,1759.0,1643.0,1759.0,1772.0,1753.0,1230.0,1743.0,-126.25275421142578,-8.261970520019531,-50.974098205566406,Left
2817.359130859375,56131,1,1771.0,1757.0,1785.0,1761.0,1763.0,1753.0,1319.0,1720.0,-126.25275421142578,-8.261970520019531,-50.974098205566406,Left
2809.6611328125,56132,1,1785.0,1763.0,1876.0,1765.0,1765.0,1755.0,1400.0,1737.0,-126.25275421142578,-8.261970520019531,-50.974098205566406,Left
2811.6611328125,56132,1,1812.0,1749.0,1641.0,1742.0,1749.0,1749.0,1461.0,1791.0,-126.25275421142578,-8.261970520019531,-50.974098205566406,Left
2813.6611328125,56132,1,1747.0,1767.0,1753.0,1763.0,1762.0,1750.0,1511.0,1709.0,-126.25275421142578,-8.261970520019531,-50.974098205566406,Left
2815.6611328125,56132,1,1739.0,1767.0,1775.0,1763.0,1749.0,1753.0,1887.0,1746.0,-126.25275421142578,-8.261970520019531,-50.974098205566406,Left
2817.6611328125,56132,1,1771.0,1767.0,1821.0,1769.0,1759.0,1753.0,3175.0,1788.0,-126.25275421142578,-8.261970520019531,-50.974098205566406,Left
2809.92529296875,56133,1,1755.0,1765.0,1763.0,1757.0,1751.0,1751.0,3833.0,1735.0,-126.25275421142578,-8.261970520019531,-50.974098205566406,Left
2811.92529296875,56133,1,1751.0,1759.0,1787.0,1755.0,1737.0,1753.0,3836.0,1790.0,-126.25275421142578,-8.261970520019531,-50.974098205566406,Left
2813.92529296875,56133,1,1743.0,1757.0,1725.0,1749.0,1749.0,1753.0,3837.0,1717.0,-126.25275421142578,-8.261970520019531,-50.974098205566406,Left
2815.92529296875,56133,1,1780.0,1767.0,1736.0,1769.0,1767.0,1753.0,3835.0,1759.0,-126.25275421142578,-8.261970520019531,-50.974098205566406,Left
2817.92529296875,56133,1,1749.0,1765.0,1738.0,1765.0,1757.0,1753.0,3833.0,1769.0,-127.75114440917969,-10.076013565063477,-51.2745246887207,Left
2810.170166015625,56134,1,1748.0,1753.0,1759.0,1743.0,1743.0,1750.0,3833.0,1721.0,-127.75114440917969,-10.076013565063477,-51.2745246887207,Left
2812.170166015625,56134,1,1719.0,1751.0,1755.0,1748.0,1743.0,1752.0,3824.0,1721.0,-127.75114440917969,-10.076013565063477,-51.2745246887207,Left
2814.170166015625,56134,1,1763.0,1766.0,1818.0,1771.0,1763.0,1751.0,3833.0,1805.0,-127.75114440917969,-10.076013565063477,-51.2745246887207,Left
2816.170166015625,56134,1,1816.0,1770.0,1751.0,1765.0,1753.0,1752.0,3837.0,1754.0,-127.75114440917969,-10.076013565063477,-51.2745246887207,Left
2818.170166015625,56134,1,1771.0,1779.0,1765.0,1767.0,1768.0,1753.0,3832.0,1773.0,-127.75114440917969,-10.076013565063477,-51.2745246887207,Left
2810.4140625,56135,1,1721.0,1767.0,1737.0,1766.0,1755.0,1751.0,3833.0,1678.0,-127.75114440917969,-10.076013565063477,-51.2745246887207,Left
2812.4140625,56135,1,1763.0,1755.0,1757.0,1748.0,1765.0,1753.0,3835.0,1739.0,-127.75114440917969,-10.076013565063477,-51.2745246887207,Left
2814.4140625,56135,1,1765.0,1751.0,1759.0,1741.0,1749.0,1752.0,3823.0,1753.0,-127.75114440917969,-10.076013565063477,-51.2745246887207,Left
2816.4140625,56135,1,1759.0,1766.0,1751.0,1753.0,1727.0,1747.0,3835.0,1725.0,-127.75114440917969,-10.076013565063477,-51.2745246887207,Left
2818.4140625,56135,1,1778.0,1769.0,1754.0,1766.0,1750.0,1755.0,3836.0,1745.0,-127.75114440917969,-10.076013565063477,-51.2745246887207,Left
2810.663330078125,56136,1,1745.0,1755.0,1779.0,1755.0,1741.0,1753.0,3833.0,1767.0,-127.75114440917969,-10.076013565063477,-51.2745246887207,Left
2812.663330078125,56136,1,1749.0,1750.0,1743.0,1757.0,1748.0,1753.0,3826.0,1781.0,-127.75114440917969,-10.076013565063477,-51.2745246887207,Left
2814.663330078125,56136,1,1784.0,1775.0,1755.0,1771.0,1759.0,1752.0,3835.0,1809.0,-127.75114440917969,-10.076013565063477,-51.2745246887207,Left
2816.663330078125,56136,1,1801.0,1772.0,1816.0,1759.0,1757.0,1751.0,3845.0,1752.0,-127.75114440917969,-10.076013565063477,-51.2745246887207,Left
2818.663330078125,56136,1,1684.0,1741.0,1695.0,1749.0,1749.0,1753.0,3837.0,1675.0,-127.75114440917969,-10.076013565063477,-51.2745246887207,Left
2810.9072265625,56137,1,1719.0,1751.0,1737.0,1755.0,1753.0,1749.0,3836.0,1707.0,-127.75114440917969,-10.076013565063477,-51.2745246887207,Left
2812.9072265625,56137,1,1752.0,1754.0,1839.0,1753.0,1735.0,1749.0,3828.0,1848.0,-127.75114440917969,-10.076013565063477,-51.2745246887207,Left
2814.9072265625,56137,1,1880.0,1755.0,1771.0,1773.0,1761.0,1753.0,3830.0,1753.0,-127.75114440917969,-10.076013565063477,-51.2745246887207,Left
2816.9072265625,56137,1,1725.0,1783.0,1769.0,1789.0,1756.0,1753.0,3495.0,1852.0,-127.75114440917969,-10.076013565063477,-51.2745246887207,Left
2818.9072265625,56137,1,1864.0,1773.0,1736.0,1751.0,1769.0,1753.0,3224.0,1764.0,-127.75114440917969,-10.076013565063477,-51.2745246887207,Left
2811.153076171875,56138,1,1751.0,1756.0,1739.0,1760.0,1751.0,1752.0,3045.0,1657.0,-127.75114440917969,-10.076013565063477,-51.2745246887207,Left
2813.153076171875,56138,1,1733.0,1757.0,1780.0,1757.0,1762.0,1747.0,2825.0,1785.0,-127.75114440917969,-10.076013565063477,-51.2745246887207,Left
2815.153076171875,56138,1,1733.0,1733.0,1689.0,1746.0,1753.0,1753.0,2669.0,1781.0,-127.75114440917969,-10.076013565063477,-51.2745246887207,Left
2817.153076171875,56138,1,1787.0,1754.0,1863.0,1742.0,227.0,1747.0,2543.0,1763.0,-127.75114440917969,-10.076013565063477,-51.2745246887207,Left
2819.153076171875,56138,1,1763.0,1774.0,1743.0,1767.0,0.0,1751.0,2403.0,1773.0,-127.75114440917969,-10.076013565063477,-51.2745246887207,Left
2811.400146484375,56139,1,1701.0,1774.0,1733.0,1767.0,0.0,1753.0,2275.0,1673.0,-127.75114440917969,-10.076013565063477,-51.2745246887207,Left
2813.400146484375,56139,1,1657.0,1734.0,1561.0,1725.0,0.0,1753.0,2193.0,1657.0,-127.75114440917969,-10.076013565063477,-51.2745246887207,Left
2815.400146484375,56139,1,1787.0,1782.0,1734.0,1789.0,0.0,1751.0,2159.0,1775.0,-127.75114440917969,-10.076013565063477,-51.2745246887207,Left
2817.400146484375,56139,1,1817.0,1775.0,1797.0,1783.0,0.0,1755.0,2068.0,1747.0,-127.75114440917969,-10.076013565063477,-51.2745246887207,Left
2819.400146484375,56139,1,1801.0,1774.0,1785.0,1769.0,0.0,1753.0,1993.0,1805.0,-127.75114440917969,-10.076013565063477,-51.2745246887207,Left
2811.6474609375,56140,1,1715.0,1751.0,1738.0,1762.0,0.0,1753.0,1913.0,1789.0,-127.75114440917969,-10.076013565063477,-51.2745246887207,Left
2813.6474609375,56140,1,1821.0,1739.0,1848.0,1726.0,0.0,1751.0,1867.0,1813.0,-127.75114440917969,-10.076013565063477,-51.2745246887207,Left
2815.6474609375,56140,1,1691.0,1721.0,1645.0,1707.0,0.0,1752.0,1867.0,1663.0,-127.75114440917969,-10.076013565063477,-51.2745246887207,Left
2817.6474609375,56140,1,1821.0,1770.0,1783.0,1747.0,0.0,1753.0,1880.0,1739.0,-127.75114440917969,-10.076013565063477,-51.2745246887207,Left
2819.6474609375,56140,1,1775.0,1769.0,1743.0,1773.0,0.0,1748.0,1880.0,1803.0,-132.58154296875,-13.77128791809082,-55.76123046875,Left
2812.13525390625,56141,1,1707.0,1757.0,1636.0,1743.0,0.0,1754.0,1909.0,1673.0,-132.58154296875,-13.77128791809082,-55.76123046875,Left
2814.13525390625,56141,1,1735.0,1769.0,1900.0,1775.0,0.0,1751.0,1853.0,1779.0,-132.58154296875,-13.77128791809082,-55.76123046875,Left
2816.13525390625,56141,1,1755.0,1781.0,1809.0,1788.0,235.0,1753.0,1720.0,1714.0,-132.58154296875,-13.77128791809082,-55.76123046875,Left
2818.13525390625,56141,1,1817.0,1759.0,1823.0,1768.0,506.0,1753.0,1715.0,1835.0,-132.58154296875,-13.77128791809082,-55.76123046875,Left
2820.13525390625,56141,1,1797.0,1738.0,1635.0,1743.0,697.0,1755.0,1676.0,1755.0,-132.58154296875,-13.77128791809082,-55.76123046875,Left
2812.46728515625,56142,1,1774.0,1783.0,1759.0,1783.0,887.0,1749.0,1711.0,1711.0,-132.58154296875,-13.77128791809082,-55.76123046875,Left
2814.46728515625,56142,1,1723.0,1757.0,1679.0,1764.0,1017.0,1753.0,1773.0,1708.0,-132.58154296875,-13.77128791809082,-55.76123046875,Left
2816.46728515625,56142,1,1771.0,1758.0,1716.0,1755.0,1136.0,1753.0,1789.0,1763.0,-132.58154296875,-13.77128791809082,-55.76123046875,Left
2818.46728515625,56142,1,1758.0,1772.0,1852.0,1772.0,1243.0,1755.0,1782.0,1773.0,-132.58154296875,-13.77128791809082,-55.76123046875,Left
2820.46728515625,56142,1,1701.0,1769.0,1671.0,1749.0,1326.0,1754.0,1831.0,1686.0,-132.58154296875,-13.77128791809082,-55.76123046875,Left
2812.772216796875,56143,1,1703.0,1756.0,1779.0,1746.0,1399.0,1753.0,1813.0,1753.0,-132.58154296875,-13.77128791809082,-55.76123046875,Left
2814.772216796875,56143,1,1837.0,1751.0,1845.0,1753.0,1455.0,1753.0,1775.0,1835.0,-132.58154296875,-13.77128791809082,-55.76123046875,Left
2816.772216796875,56143,1,1770.0,1733.0,1604.0,1727.0,1501.0,1753.0,1752.0,1751.0,-132.58154296875,-13.77128791809082,-55.76123046875,Left
2818.772216796875,56143,1,1756.0,1755.0,1779.0,1767.0,1546.0,1753.0,1725.0,1717.0,-132.58154296875,-13.77128791809082,-55.76123046875,Left
2820.772216796875,56143,1,1779.0,1765.0,1754.0,1757.0,1578.0,1751.0,1691.0,1779.0,-132.58154296875,-13.77128791809082,-55.76123046875,Left
2813.087158203125,56144,1,1738.0,1763.0,1720.0,1759.0,1593.0,1749.0,1663.0,1707.0,-132.58154296875,-13.77128791809082,-55.76123046875,Left
2815.087158203125,56144,1,1702.0,1771.0,1813.0,1772.0,1627.0,1752.0,1653.0,1779.0,-132.58154296875,-13.77128791809082,-55.76123046875,Left
2817.087158203125,56144,1,1694.0,1748.0,1708.0,1740.0,1635.0,1747.0,1647.0,1789.0,-132.58154296875,-13.77128791809082,-55.76123046875,Left
2819.087158203125,56144,1,1804.0,1746.0,1927.0,1717.0,1733.0,1752.0,1592.0,1747.0,-132.58154296875,-13.77128791809082,-55.76123046875,Left
2821.087158203125,56144,1,1864.0,1745.0,1682.0,1723.0,1674.0,1752.0,1597.0,1709.0,-132.58154296875,-13.77128791809082,-55.76123046875,Left
2813.39208984375,56145,1,1775.0,1783.0,1720.0,1799.0,1689.0,1747.0,1625.0,1798.0,-132.58154296875,-13.77128791809082,-55.76123046875,Left
2815.39208984375,56145,1,1695.0,1781.0,1800.0,1775.0,1695.0,1753.0,1637.0,1701.0,-132.58154296875,-13.77128791809082,-55.76123046875,Left
2817.39208984375,56145,1,1789.0,1771.0,1753.0,1769.0,1701.0,1755.0,1639.0,1807.0,-132.58154296875,-13.77128791809082,-55.76123046875,Left
2819.39208984375,56145,1,1811.0,1762.0,1741.0,1771.0,1709.0,1751.0,1609.0,1870.0,-132.58154296875,-13.77128791809082,-55.76123046875,Left
2821.39208984375,56145,1,1879.0,1769.0,1821.0,1784.0,1714.0,1754.0,1517.0,1799.0,-132.58154296875,-13.77128791809082,-55.76123046875,Left
2813.68115234375,56146,1,1685.0,1741.0,1635.0,1723.0,1717.0,1753.0,1503.0,1689.0,-132.58154296875,-13.77128791809082,-55.76123046875,Left
2815.68115234375,56146,1,1711.0,1765.0,1837.0,1775.0,1723.0,1753.0,1496.0,1770.0,-132.58154296875,-13.77128791809082,-55.76123046875,Left
2817.68115234375,56146,1,1736.0,1737.0,1806.0,1706.0,1725.0,1749.0,1506.0,1817.0,-132.58154296875,-13.77128791809082,-55.76123046875,Left
2819.68115234375,56146,1,1801.0,1789.0,1677.0,1783.0,1727.0,1748.0,1543.0,1751.0,-132.58154296875,-13.77128791809082,-55.76123046875,Left
2821.68115234375,56146,1,1703.0,1755.0,1591.0,1758.0,1725.0,1749.0,1567.0,1705.0,-132.58154296875,-13.77128791809082,-55.76123046875,Left
2813.9052734375,56147,1,1813.0,1783.0,1843.0,1773.0,1735.0,1753.0,1578.0,1755.0,-132.58154296875,-13.77128791809082,-55.76123046875,Left
2815.9052734375,56147,1,1775.0,1773.0,1766.0,1769.0,1738.0,1748.0,1611.0,1710.0,-132.33201599121094,-14.864827156066895,-61.35849380493164,Left
2817.9052734375,56147,1,1659.0,1767.0,1835.0,1768.0,1739.0,1753.0,1607.0,1711.0,-132.33201599121094,-14.864827156066895,-61.35849380493164,Left
2819.9052734375,56147,1,1723.0,1751.0,1779.0,1737.0,1737.0,1751.0,1654.0,1671.0,-132.33201599121094,-14.864827156066895,-61.35849380493164,Left
2821.9052734375,56147,1,1831.0,1737.0,1581.0,1755.0,1739.0,1753.0,1684.0,1879.0,-132.33201599121094,-14.864827156066895,-61.35849380493164,Left
2814.156005859375,56148,1,1853.0,1771.0,1849.0,1775.0,1741.0,1753.0,1669.0,1779.0,-132.33201599121094,-14.864827156066895,-61.35849380493164,Left
2816.156005859375,56148,1,1709.0,1747.0,1640.0,1725.0,1742.0,1752.0,1583.0,1695.0,-132.33201599121094,-14.864827156066895,-61.35849380493164,Left
2818.156005859375,56148,1,1755.0,1769.0,1802.0,1764.0,1743.0,1749.0,1547.0,1815.0,-132.33201599121094,-14.864827156066895,-61.35849380493164,Left
2820.156005859375,56148,1,1811.0,1769.0,1743.0,1756.0,1718.0,1751.0,1581.0,1661.0,-132.33201599121094,-14.864827156066895,-61.35849380493164,Left
2822.156005859375,56148,1,1767.0,1779.0,1783.0,1753.0,1741.0,1751.0,1559.0,1695.0,-132.33201599121094,-14.864827156066895,-61.35849380493164,Left
2814.402099609375,56149,1,1619.0,1757.0,1685.0,1755.0,1747.0,1751.0,1595.0,1702.0,-132.33201599121094,-14.864827156066895,-61.35849380493164,Left
2816.402099609375,56149,1,1855.0,1783.0,1789.0,1784.0,1743.0,1753.0,1659.0,1799.0,-132.33201599121094,-14.864827156066895,-61.35849380493164,Left
2818.402099609375,56149,1,1801.0,1740.0,1721.0,1707.0,1741.0,1752.0,1695.0,1706.0,-132.33201599121094,-14.864827156066895,-61.35849380493164,Left
2820.402099609375,56149,1,1705.0,1755.0,1801.0,1775.0,1748.0,1747.0,1715.0,1835.0,-132.33201599121094,-14.864827156066895,-61.35849380493164,Left
2822.402099609375,56149,1,1869.0,1749.0,1855.0,1752.0,1743.0,1750.0,1707.0,1735.0,-132.33201599121094,-14.864827156066895,-61.35849380493164,Left
2814.632080078125,56150,1,1627.0,1775.0,1663.0,1779.0,1747.0,1752.0,1687.0,1610.0,-132.33201599121094,-14.864827156066895,-61.35849380493164,Left
2816.632080078125,56150,1,1672.0,1751.0,1739.0,1759.0,1745.0,1753.0,1670.0,1791.0,-132.33201599121094,-14.864827156066895,-61.35849380493164,Left
2818.632080078125,56150,1,2003.0,1759.0,1810.0,1753.0,1745.0,1753.0,1717.0,1769.0,-132.33201599121094,-14.864827156066895,-61.35849380493164,Left
2820.632080078125,56150,1,1702.0,1772.0,1779.0,1758.0,1739.0,1751.0,1747.0,1748.0,-132.33201599121094,-14.864827156066895,-61.35849380493164,Left
2822.632080078125,56150,1,1789.0,1773.0,1783.0,1752.0,1747.0,1751.0,1832.0,1843.0,-132.33201599121094,-14.864827156066895,-61.35849380493164,Left
2814.8623046875,56151,1,1787.0,1785.0,1763.0,1789.0,1749.0,1750.0,1878.0,1673.0,-132.33201599121094,-14.864827156066895,-61.35849380493164,Left
2816.8623046875,56151,1,1711.0,1753.0,1813.0,1719.0,1749.0,1752.0,1939.0,1727.0,-132.33201599121094,-14.864827156066895,-61.35849380493164,Left
2818.8623046875,56151,1,1864.0,1747.0,1745.0,1807.0,1748.0,1750.0,1887.0,1814.0,-132.33201599121094,-14.864827156066895,-61.35849380493164,Left
2820.8623046875,56151,1,1835.0,1785.0,1743.0,1811.0,1749.0,1755.0,1854.0,1723.0,-132.33201599121094,-14.864827156066895,-61.35849380493164,Left
2822.8623046875,56151,1,1683.0,1751.0,1691.0,1743.0,1748.0,1753.0,1779.0,1673.0,-132.33201599121094,-14.864827156066895,-61.35849380493164,Left
2815.108154296875,56152,1,1726.0,1747.0,1822.0,1726.0,1749.0,1751.0,1720.0,1749.0,-132.33201599121094,-14.864827156066895,-61.35849380493164,Left
2817.108154296875,56152,1,1706.0,1741.0,1747.0,1763.0,1749.0,1753.0,1714.0,1720.0,-132.33201599121094,-14.864827156066895,-61.35849380493164,Left
2819.108154296875,56152,1,1717.0,1745.0,1692.0,1739.0,1749.0,1748.0,1855.0,1691.0,-132.33201599121094,-14.864827156066895,-61.35849380493164,Left
2821.108154296875,56152,1,1789.0,1780.0,1800.0,1785.0,1749.0,1752.0,1837.0,1765.0,-132.33201599121094,-14.864827156066895,-61.35849380493164,Left
2823.108154296875,56152,1,1707.0,1749.0,1677.0,1734.0,1723.0,1749.0,1945.0,1723.0,-132.33201599121094,-14.864827156066895,-61.35849380493164,Left
2815.339111328125,56153,1,1768.0,1758.0,1767.0,1721.0,1750.0,1745.0,1948.0,1746.0,-132.33201599121094,-14.864827156066895,-61.35849380493164,Left
2817.339111328125,56153,1,1748.0,1779.0,1833.0,1791.0,1747.0,1754.0,1945.0,1768.0,-132.33201599121094,-14.864827156066895,-61.35849380493164,Left
2819.339111328125,56153,1,1716.0,1774.0,1817.0,1774.0,1752.0,1753.0,1950.0,1723.0,-132.33201599121094,-14.864827156066895,-61.35849380493164,Left
2821.339111328125,56153,1,1734.0,1752.0,1695.0,1776.0,1742.0,1746.0,1914.0,1801.0,-132.33201599121094,-14.864827156066895,-61.35849380493164,Left
2823.339111328125,56153,1,1879.0,1747.0,1736.0,1727.0,1751.0,1753.0,1875.0,1822.0,-132.33201599121094,-14.864827156066895,-61.35849380493164,Left
2815.55517578125,56154,1,1790.0,1751.0,1541.0,1778.0,1747.0,1753.0,1907.0,1687.0,-125.82377624511719,-14.738229751586914,-63.81708526611328,Left
2817.55517578125,56154,1,1749.0,1775.0,1789.0,1773.0,1750.0,1752.0,1843.0,1705.0,-125.82377624511719,-14.738229751586914,-63.81708526611328,Left
2819.55517578125,56154,1,1741.0,1749.0,1849.0,1761.0,1747.0,1740.0,1833.0,1767.0,-125.82377624511719,-14.738229751586914,-63.81708526611328,Left
2821.55517578125,56154,1,1720.0,1741.0,1775.0,1735.0,1751.0,1753.0,1867.0,1831.0,-125.82377624511719,-14.738229751586914,-63.81708526611328,Left
2823.55517578125,56154,1,1671.0,1735.0,1827.0,1720.0,1751.0,1751.0,1849.0,1637.0,-125.82377624511719,-14.738229751586914,-63.81708526611328,Left
2815.786376953125,56155,1,1684.0,1763.0,1691.0,1766.0,1751.0,1753.0,1827.0,1727.0,-125.82377624511719,-14.738229751586914,-63.81708526611328,Left
2817.786376953125,56155,1,1757.0,1769.0,1693.0,1751.0,1743.0,1753.0,1823.0,1832.0,-125.82377624511719,-14.738229751586914,-63.81708526611328,Left
2819.786376953125,56155,1,1959.0,1769.0,1826.0,1781.0,1750.0,1755.0,1823.0,1895.0,-125.82377624511719,-14.738229751586914,-63.81708526611328,Left
2821.786376953125,56155,1,1773.0,1767.0,1768.0,1769.0,1772.0,1753.0,1812.0,1829.0,-125.82377624511719,-14.738229751586914,-63.81708526611328,Left
2823.786376953125,56155,1,1703.0,1768.0,1607.0,1771.0,1751.0,1749.0,1783.0,1607.0,-125.82377624511719,-14.738229751586914,-63.81708526611328,Left
2816.01611328125,56156,1,1687.0,1771.0,1801.0,1771.0,1751.0,1751.0,1785.0,1707.0,-125.82377624511719,-14.738229751586914,-63.81708526611328,Left
2818.01611328125,56156,1,1739.0,1747.0,1715.0,1747.0,1749.0,1751.0,1720.0,1803.0,-125.82377624511719,-14.738229751586914,-63.81708526611328,Left
2820.01611328125,56156,1,1774.0,1752.0,1765.0,1771.0,1750.0,1755.0,1739.0,1885.0,-125.82377624511719,-14.738229751586914,-63.81708526611328,Left
2822.01611328125,56156,1,1681.0,1779.0,1875.0,1764.0,1753.0,1755.0,1775.0,1770.0,-125.82377624511719,-14.738229751586914,-63.81708526611328,Left
2824.01611328125,56156,1,1769.0,1739.0,1614.0,1739.0,1753.0,1753.0,1805.0,1707.0,-125.82377624511719,-14.738229751586914,-63.81708526611328,Left
2816.2490234375,56157,1,1827.0,1779.0,1832.0,1783.0,1749.0,1752.0,1823.0,1615.0,-125.82377624511719,-14.738229751586914,-63.81708526611328,Left
2818.2490234375,56157,1,1742.0,1727.0,1553.0,1745.0,1752.0,1749.0,1833.0,1945.0,-125.82377624511719,-14.738229751586914,-63.81708526611328,Left
2820.2490234375,56157,1,1849.0,1781.0,1807.0,1791.0,1747.0,1750.0,1863.0,1727.0,-125.82377624511719,-14.738229751586914,-63.81708526611328,Left
2822.2490234375,56157,1,1762.0,1770.0,1753.0,1775.0,1749.0,1753.0,1813.0,1639.0,-125.82377624511719,-14.738229751586914,-63.81708526611328,Left
2824.2490234375,56157,1,1565.0,1781.0,1791.0,1781.0,1752.0,1752.0,1707.0,1692.0,-125.82377624511719,-14.738229751586914,-63.81708526611328,Left
2816.482177734375,56158,1,1685.0,1755.0,1763.0,1739.0,1751.0,1749.0,1691.0,1737.0,-125.82377624511719,-14.738229751586914,-63.81708526611328,Left
2818.482177734375,56158,1,2011.0,1723.0,1721.0,1725.0,1752.0,1755.0,1750.0,1785.0,-125.82377624511719,-14.738229751586914,-63.81708526611328,Left
2820.482177734375,56158,1,1739.0,1800.0,1898.0,1803.0,1748.0,1753.0,1782.0,1677.0,-125.82377624511719,-14.738229751586914,-63.81708526611328,Left
2822.482177734375,56158,1,1709.0,1753.0,1611.0,1743.0,1752.0,1755.0,1833.0,1763.0,-125.82377624511719,-14.738229751586914,-63.81708526611328,Left
2824.482177734375,56158,1,1884.0,1769.0,1909.0,1781.0,1750.0,1753.0,1827.0,2039.0,-125.82377624511719,-14.738229751586914,-63.81708526611328,Left
2816.711181640625,56159,1,1881.0,1771.0,1726.0,1751.0,1753.0,1751.0,1819.0,1719.0,-125.82377624511719,-14.738229751586914,-63.81708526611328,Left
2818.711181640625,56159,1,1768.0,1799.0,1758.0,1805.0,1751.0,1753.0,1865.0,1672.0,-125.82377624511719,-14.738229751586914,-63.81708526611328,Left
2820.711181640625,56159,1,1707.0,1753.0,1753.0,1739.0,1751.0,1753.0,1735.0,1733.0,-125.82377624511719,-14.738229751586914,-63.81708526611328,Left
2822.711181640625,56159,1,1705.0,1751.0,1743.0,1747.0,1753.0,1755.0,1715.0,1707.0,-125.82377624511719,-14.738229751586914,-63.81708526611328,Left
2824.711181640625,56159,1,1711.0,1750.0,1753.0,1757.0,1751.0,1756.0,1717.0,1733.0,-125.82377624511719,-14.738229751586914,-63.81708526611328,Left
2816.94091796875,56160,1,1745.0,1763.0,1785.0,1758.0,1749.0,1755.0,1688.0,1783.0,-125.82377624511719,-14.738229751586914,-63.81708526611328,Left
2818.94091796875,56160,1,1757.0,1763.0,1784.0,1754.0,1750.0,1751.0,1627.0,1719.0,-124.28467559814453,-14.21961498260498,-64.72998809814453,Left
2820.94091796875,56160,1,1735.0,1773.0,1701.0,1772.0,1752.0,1754.0,1675.0,1755.0,-124.28467559814453,-14.21961498260498,-64.72998809814453,Left
2822.94091796875,56160,1,1759.0,1779.0,1820.0,1767.0,1748.0,1752.0,1721.0,1722.0,-124.28467559814453,-14.21961498260498,-64.72998809814453,Left
2824.94091796875,56160,1,1719.0,1745.0,1812.0,1737.0,1750.0,1755.0,1752.0,1735.0,-124.28467559814453,-14.21961498260498,-64.72998809814453,Left
2817.168212890625,56161,1,1788.0,1736.0,1626.0,1723.0,1752.0,1754.0,1797.0,1801.0,-124.28467559814453,-14.21961498260498,-64.72998809814453,Left
2819.168212890625,56161,1,1833.0,1779.0,1685.0,1799.0,1741.0,1755.0,1737.0,1625.0,-124.28467559814453,-14.21961498260498,-64.72998809814453,Left
2821.168212890625,56161,1,1701.0,1742.0,1671.0,1737.0,1747.0,1749.0,1683.0,1815.0,-124.28467559814453,-14.21961498260498,-64.72998809814453,Left
2823.168212890625,56161,1,1815.0,1765.0,1789.0,1763.0,1751.0,1753.0,1653.0,1815.0,-124.28467559814453,-14.21961498260498,-64.72998809814453,Left
2825.168212890625,56161,1,1770.0,1769.0,1779.0,1790.0,1751.0,1754.0,1628.0,1708.0,-124.28467559814453,-14.21961498260498,-64.72998809814453,Left
2817.656005859375,56162,1,1755.0,1771.0,1798.0,1765.0,1753.0,1749.0,1608.0,1740.0,-124.28467559814453,-14.21961498260498,-64.72998809814453,Left
2819.656005859375,56162,1,1757.0,1763.0,1751.0,1746.0,1748.0,1753.0,1593.0,1765.0,-124.28467559814453,-14.21961498260498,-64.72998809814453,Left
2821.656005859375,56162,1,1741.0,1771.0,1775.0,1755.0,1753.0,1753.0,1572.0,1693.0,-124.28467559814453,-14.21961498260498,-64.72998809814453,Left
2823.656005859375,56162,1,1701.0,1771.0,1819.0,1769.0,1748.0,1751.0,1557.0,1749.0,-124.28467559814453,-14.21961498260498,-64.72998809814453,Left
2825.656005859375,56162,1,1827.0,1752.0,1629.0,1719.0,1753.0,1753.0,1555.0,1782.0,-124.28467559814453,-14.21961498260498,-64.72998809814453,Left
2817.88330078125,56163,1,1847.0,1773.0,1791.0,1757.0,1751.0,1751.0,1529.0,1767.0,-124.28467559814453,-14.21961498260498,-64.72998809814453,Left
2819.88330078125,56163,1,1740.0,1752.0,1721.0,1762.0,1753.0,1753.0,1528.0,1752.0,-124.28467559814453,-14.21961498260498,-64.72998809814453,Left
2821.88330078125,56163,1,1751.0,1769.0,1815.0,1786.0,1747.0,1750.0,1526.0,1773.0,-124.28467559814453,-14.21961498260498,-64.72998809814453,Left
2823.88330078125,56163,1,1720.0,1751.0,1707.0,1755.0,1751.0,1754.0,1517.0,1719.0,-124.28467559814453,-14.21961498260498,-64.72998809814453,Left
2825.88330078125,56163,1,1743.0,1746.0,1739.0,1738.0,1748.0,1753.0,1519.0,1720.0,-124.28467559814453,-14.21961498260498,-64.72998809814453,Left
2818.098388671875,56164,1,1757.0,1750.0,1739.0,1747.0,1751.0,1753.0,1514.0,1765.0,-124.28467559814453,-14.21961498260498,-64.72998809814453,Left
2820.098388671875,56164,1,1746.0,1772.0,1779.0,1753.0,1752.0,1753.0,1513.0,1725.0,-124.28467559814453,-14.21961498260498,-64.72998809814453,Left
2822.098388671875,56164,1,1705.0,1763.0,1754.0,1749.0,1752.0,1755.0,1511.0,1759.0,-124.28467559814453,-14.21961498260498,-64.72998809814453,Left
2824.098388671875,56164,1,1725.0,1726.0,1694.0,1715.0,1749.0,1751.0,1487.0,1758.0,-124.28467559814453,-14.21961498260498,-64.72998809814453,Left
2826.098388671875,56164,1,1816.0,1773.0,1768.0,1771.0,1752.0,1753.0,1500.0,1688.0,-124.28467559814453,-14.21961498260498,-64.72998809814453,Left
2818.3291015625,56165,1,1701.0,1753.0,1783.0,1767.0,1751.0,1752.0,1496.0,1903.0,-124.28467559814453,-14.21961498260498,-64.72998809814453,Left
2820.3291015625,56165,1,1801.0,1769.0,1721.0,1767.0,1752.0,1753.0,1499.0,1677.0,-124.28467559814453,-14.21961498260498,-64.72998809814453,Left
2822.3291015625,56165,1,1855.0,1739.0,1687.0,1746.0,1753.0,1753.0,1500.0,1763.0,-124.28467559814453,-14.21961498260498,-64.72998809814453,Left
2824.3291015625,56165,1,1805.0,1771.0,1711.0,1775.0,1753.0,1753.0,1497.0,1757.0,-124.28467559814453,-14.21961498260498,-64.72998809814453,Left
2826.3291015625,56165,1,1765.0,1771.0,1802.0,1783.0,1747.0,1754.0,1497.0,1764.0,-124.28467559814453,-14.21961498260498,-64.72998809814453,Left
2818.570068359375,56166,1,1746.0,1758.0,1764.0,1757.0,1751.0,1753.0,1496.0,1724.0,-124.28467559814453,-14.21961498260498,-64.72998809814453,Left
2820.570068359375,56166,1,1739.0,1759.0,1763.0,1752.0,1752.0,1751.0,1492.0,1747.0,-124.28467559814453,-14.21961498260498,-64.72998809814453,Left
2822.570068359375,56166,1,1727.0,1778.0,1756.0,1765.0,1749.0,1755.0,1501.0,1734.0,-124.28467559814453,-14.21961498260498,-64.72998809814453,Left
2824.570068359375,56166,1,1740.0,1782.0,1753.0,1763.0,1757.0,1749.0,1497.0,1755.0,-124.28467559814453,-14.21961498260498,-64.72998809814453,Left
2826.570068359375,56166,1,1783.0,1786.0,1757.0,1771.0,1754.0,1752.0,1495.0,1750.0,-124.89585876464844,-14.1820650100708,-65.12753295898438,Left
2818.798095703125,56167,1,1750.0,1769.0,1753.0,1751.0,1749.0,1749.0,1493.0,1756.0,-124.89585876464844,-14.1820650100708,-65.12753295898438,Left
2820.798095703125,56167,1,1773.0,1755.0,1756.0,1763.0,1752.0,1752.0,1497.0,1749.0,-124.89585876464844,-14.1820650100708,-65.12753295898438,Left
2822.798095703125,56167,1,1764.0,1749.0,1766.0,1758.0,1752.0,1753.0,1497.0,1751.0,-124.89585876464844,-14.1820650100708,-65.12753295898438,Left
2824.798095703125,56167,1,1714.0,1755.0,1767.0,1753.0,1749.0,1750.0,1491.0,1717.0,-124.89585876464844,-14.1820650100708,-65.12753295898438,Left
2826.798095703125,56167,1,1789.0,1755.0,1780.0,1765.0,1750.0,1753.0,1495.0,1740.0,-124.89585876464844,-14.1820650100708,-65.12753295898438,Left
2823.418212890625,56168,1,1654.0,1723.0,1686.0,1722.0,1753.0,1752.0,1494.0,1833.0,-124.89585876464844,-14.1820650100708,-65.12753295898438,Left
2825.418212890625,56168,1,1869.0,1785.0,1609.0,1781.0,1749.0,1748.0,1495.0,1672.0,-124.89585876464844,-14.1820650100708,-65.12753295898438,Left
2827.418212890625,56168,1,1752.0,1764.0,1737.0,1753.0,1753.0,1752.0,1495.0,1772.0,-124.89585876464844,-14.1820650100708,-65.12753295898438,Left
2829.418212890625,56168,1,1715.0,1783.0,1833.0,1777.0,1752.0,1752.0,1491.0,1742.0,-124.89585876464844,-14.1820650100708,-65.12753295898438,Left
2831.418212890625,56168,1,1711.0,1756.0,1663.0,1750.0,1751.0,1753.0,1487.0,1789.0,-124.89585876464844,-14.1820650100708,-65.12753295898438,Left
2827.71044921875,56169,1,1768.0,1755.0,1837.0,1750.0,1755.0,1752.0,1494.0,1771.0,-124.89585876464844,-14.1820650100708,-65.12753295898438,Left
2829.71044921875,56169,1,1847.0,1743.0,1635.0,1748.0,1753.0,1751.0,1487.0,1699.0,-124.89585876464844,-14.1820650100708,-65.12753295898438,Left
2831.71044921875,56169,1,1712.0,1761.0,1843.0,1775.0,1752.0,1754.0,1485.0,1785.0,-124.89585876464844,-14.1820650100708,-65.12753295898438,Left
2833.71044921875,56169,1,1746.0,1753.0,1780.0,1751.0,1752.0,1753.0,1491.0,1752.0,-124.89585876464844,-14.1820650100708,-65.12753295898438,Left
2835.71044921875,56169,1,1771.0,1765.0,1743.0,1773.0,1751.0,1751.0,1486.0,1707.0,-124.89585876464844,-14.1820650100708,-65.12753295898438,Left
2839.722412109375,56170,1,1685.0,1765.0,1752.0,1787.0,1751.0,1754.0,1493.0,1740.0,-124.89585876464844,-14.1820650100708,-65.12753295898438,Left
2841.722412109375,56170,1,1726.0,1757.0,1809.0,1752.0,1747.0,1755.0,1491.0,1733.0,-124.89585876464844,-14.1820650100708,-65.12753295898438,Left
2843.722412109375,56170,1,1869.0,1755.0,1769.0,1741.0,1752.0,1749.0,1483.0,1881.0,-124.89585876464844,-14.1820650100708,-65.12753295898438,Left
2845.722412109375,56170,1,1764.0,1756.0,1725.0,1757.0,1768.0,1754.0,1485.0,1629.0,-124.89585876464844,-14.1820650100708,-65.12753295898438,Left
2847.722412109375,56170,1,1759.0,1757.0,1807.0,1768.0,1749.0,1753.0,1483.0,1817.0,-124.89585876464844,-14.1820650100708,-65.12753295898438,Left
2840.09326171875,56171,1,1733.0,1779.0,1770.0,1783.0,1753.0,1753.0,1481.0,1725.0,-124.89585876464844,-14.1820650100708,-65.12753295898438,Left
2842.09326171875,56171,1,1709.0,1749.0,1737.0,1748.0,1752.0,1751.0,1486.0,1766.0,-124.89585876464844,-14.1820650100708,-65.12753295898438,Left
2844.09326171875,56171,1,1749.0,1766.0,1755.0,1755.0,1750.0,1747.0,1483.0,1755.0,-124.89585876464844,-14.1820650100708,-65.12753295898438,Left
2846.09326171875,56171,1,1781.0,1749.0,1768.0,1764.0,1751.0,1752.0,1485.0,1749.0,-124.89585876464844,-14.1820650100708,-65.12753295898438,Left
2848.09326171875,56171,1,1740.0,1741.0,1749.0,1737.0,1753.0,1751.0,1487.0,1717.0,-124.89585876464844,-14.1820650100708,-65.12753295898438,Left
2886.043212890625,56172,1,1750.0,1765.0,1743.0,1845.0,1749.0,1747.0,1483.0,1752.0,-124.89585876464844,-14.1820650100708,-65.12753295898438,Left
2888.043212890625,56172,1,1765.0,1772.0,1759.0,1769.0,1748.0,1753.0,1484.0,1763.0,-124.89585876464844,-14.1820650100708,-65.12753295898438,Left
2890.043212890625,56172,1,1769.0,1767.0,1756.0,1756.0,1749.0,1755.0,1481.0,1749.0,-124.89585876464844,-14.1820650100708,-65.12753295898438,Left
2892.043212890625,56172,1,1773.0,1773.0,1755.0,1747.0,1748.0,1749.0,1481.0,1757.0,-124.89585876464844,-14.1820650100708,-65.12753295898438,Left
2894.043212890625,56172,1,1766.0,1765.0,1755.0,1763.0,1752.0,1754.0,1480.0,1741.0,-124.89585876464844,-14.1820650100708,-65.12753295898438,Left
2886.740234375,56173,1,1765.0,1773.0,1756.0,1770.0,1752.0,1751.0,1485.0,1755.0,-124.89585876464844,-14.1820650100708,-65.12753295898438,Left
2888.740234375,56173,1,1767.0,1759.0,1769.0,1757.0,1753.0,1753.0,1485.0,1756.0,-126.8624038696289,-14.297418594360352,-65.16018676757812,Left
2890.740234375,56173,1,1756.0,1750.0,1755.0,1767.0,1749.0,1751.0,1485.0,1751.0,-126.8624038696289,-14.297418594360352,-65.16018676757812,Left
2892.740234375,56173,1,1743.0,1757.0,1756.0,1758.0,1750.0,1747.0,1477.0,1747.0,-126.8624038696289,-14.297418594360352,-65.16018676757812,Left
2894.740234375,56173,1,1751.0,1751.0,1763.0,1756.0,1751.0,1754.0,1481.0,1751.0,-126.8624038696289,-14.297418594360352,-65.16018676757812,Left
2887.314208984375,56174,1,1757.0,1765.0,1755.0,1757.0,1752.0,1752.0,1482.0,1747.0,-126.8624038696289,-14.297418594360352,-65.16018676757812,Left
2889.314208984375,56174,1,1768.0,1771.0,1757.0,1758.0,1752.0,1753.0,1481.0,1754.0,-126.8624038696289,-14.297418594360352,-65.16018676757812,Left
2891.314208984375,56174,1,1765.0,1773.0,1759.0,1765.0,1753.0,1753.0,1481.0,1753.0,-126.8624038696289,-14.297418594360352,-65.16018676757812,Left
2893.314208984375,56174,1,1763.0,1775.0,1757.0,1766.0,1743.0,1749.0,1481.0,1751.0,-126.8624038696289,-14.297418594360352,-65.16018676757812,Left
2895.314208984375,56174,1,1763.0,1765.0,1765.0,1758.0,1751.0,1753.0,1481.0,1758.0,-126.8624038696289,-14.297418594360352,-65.16018676757812,Left
2887.793212890625,56175,1,1734.0,1758.0,1749.0,1749.0,1751.0,1749.0,1471.0,1724.0,-126.8624038696289,-14.297418594360352,-65.16018676757812,Left
2889.793212890625,56175,1,1769.0,1755.0,1763.0,1755.0,1753.0,1755.0,1478.0,1772.0,-126.8624038696289,-14.297418594360352,-65.16018676757812,Left
2891.793212890625,56175,1,1767.0,1757.0,1745.0,1759.0,1751.0,1755.0,1479.0,1755.0,-126.8624038696289,-14.297418594360352,-65.16018676757812,Left
2893.793212890625,56175,1,1774.0,1751.0,1765.0,1753.0,1751.0,1752.0,1479.0,1751.0,-126.8624038696289,-14.297418594360352,-65.16018676757812,Left
2895.793212890625,56175,1,1743.0,1762.0,1754.0,1765.0,1751.0,1751.0,1491.0,1735.0,-126.8624038696289,-14.297418594360352,-65.16018676757812,Left
2888.13525390625,56176,1,1747.0,1769.0,1764.0,1766.0,1752.0,1753.0,1491.0,1716.0,-126.8624038696289,-14.297418594360352,-65.16018676757812,Left
2890.13525390625,56176,1,1703.0,1764.0,1761.0,1759.0,1752.0,1754.0,1487.0,1743.0,-126.8624038696289,-14.297418594360352,-65.16018676757812,Left
2892.13525390625,56176,1,1741.0,1769.0,1801.0,1759.0,1749.0,1755.0,1485.0,1741.0,-126.8624038696289,-14.297418594360352,-65.16018676757812,Left
2894.13525390625,56176,1,1900.0,1737.0,1753.0,1725.0,1753.0,1753.0,1487.0,1806.0,-126.8624038696289,-14.297418594360352,-65.16018676757812,Left
2896.13525390625,56176,1,1854.0,1764.0,1947.0,1775.0,1753.0,1749.0,1491.0,1740.0,-126.8624038696289,-14.297418594360352,-65.16018676757812,Left
3135.76904296875,56177,1,1735.0,1775.0,1669.0,1773.0,1747.0,1756.0,1486.0,1677.0,-126.8624038696289,-14.297418594360352,-65.16018676757812,Left
3137.76904296875,56177,1,1768.0,1774.0,1704.0,1766.0,1749.0,1755.0,1490.0,1747.0,-126.8624038696289,-14.297418594360352,-65.16018676757812,Left
3139.76904296875,56177,1,1815.0,1768.0,1790.0,1766.0,1735.0,1745.0,1471.0,1721.0,-126.8624038696289,-14.297418594360352,-65.16018676757812,Left
3141.76904296875,56177,1,1747.0,1755.0,1757.0,1753.0,1749.0,1748.0,1486.0,1737.0,-126.8624038696289,-14.297418594360352,-65.16018676757812,Left
3143.76904296875,56177,1,1756.0,1752.0,1850.0,1771.0,1751.0,1754.0,1483.0,1767.0,-126.8624038696289,-14.297418594360352,-65.16018676757812,Left
3136.399169921875,56178,1,1709.0,1765.0,1728.0,1758.0,1752.0,1753.0,1507.0,1683.0,-126.8624038696289,-14.297418594360352,-65.16018676757812,Left
3138.399169921875,56178,1,1739.0,1759.0,1749.0,1756.0,1751.0,1740.0,1555.0,1757.0,-126.8624038696289,-14.297418594360352,-65.16018676757812,Left
3140.399169921875,56178,1,1811.0,1769.0,1787.0,1765.0,1749.0,1747.0,1593.0,1781.0,-126.8624038696289,-14.297418594360352,-65.16018676757812,Left
3142.399169921875,56178,1,1742.0,1764.0,1727.0,1751.0,1745.0,1752.0,1624.0,1735.0,-126.8624038696289,-14.297418594360352,-65.16018676757812,Left
3144.399169921875,56178,1,1752.0,1765.0,1789.0,1761.0,1753.0,1755.0,1647.0,1755.0,-126.8624038696289,-14.297418594360352,-65.16018676757812,Left
3136.837158203125,56179,1,1726.0,1749.0,1747.0,1753.0,1752.0,1753.0,1671.0,1736.0,-126.8624038696289,-14.297418594360352,-65.16018676757812,Left
3138.837158203125,56179,1,1785.0,1763.0,1763.0,1763.0,1754.0,1753.0,1685.0,1758.0,-126.8624038696289,-14.297418594360352,-65.16018676757812,Left
3140.837158203125,56179,1,1756.0,1753.0,1763.0,1757.0,1748.0,1753.0,1701.0,1750.0,-126.8624038696289,-14.297418594360352,-65.16018676757812,Left
3142.837158203125,56179,1,1765.0,1759.0,1754.0,1776.0,1751.0,1749.0,1710.0,1742.0,-126.8624038696289,-14.297418594360352,-65.16018676757812,Left
3144.837158203125,56179,1,1759.0,1753.0,1755.0,1755.0,1753.0,1755.0,1720.0,1750.0,-127.99284362792969,-14.400328636169434,-64.55001068115234,Left
3137.326171875,56180,1,1768.0,1765.0,1756.0,1755.0,1753.0,1753.0,1721.0,1753.0,-127.99284362792969,-14.400328636169434,-64.55001068115234,Left
3139.326171875,56180,1,1770.0,1771.0,1762.0,1765.0,1751.0,1749.0,1735.0,1748.0,-127.99284362792969,-14.400328636169434,-64.55001068115234,Left
3141.326171875,56180,1,1762.0,1769.0,1756.0,1765.0,1752.0,1753.0,1737.0,1755.0,-127.99284362792969,-14.400328636169434,-64.55001068115234,Left
3143.326171875,56180,1,1763.0,1769.0,1757.0,1761.0,1752.0,1753.0,1741.0,1751.0,-127.99284362792969,-14.400328636169434,-64.55001068115234,Left
3145.326171875,56180,1,1749.0,1752.0,1755.0,1755.0,1752.0,1749.0,1747.0,1749.0,-127.99284362792969,-14.400328636169434,-64.55001068115234,Left
3137.789306640625,56181,1,1749.0,1753.0,1709.0,1756.0,1752.0,1748.0,1749.0,1739.0,-127.99284362792969,-14.400328636169434,-64.55001068115234,Left
3139.789306640625,56181,1,1742.0,1752.0,1755.0,1761.0,1753.0,1751.0,1747.0,1747.0,-127.99284362792969,-14.400328636169434,-64.55001068115234,Left
3141.789306640625,56181,1,1745.0,1775.0,1758.0,1771.0,1752.0,1752.0,1751.0,1752.0,-127.99284362792969,-14.400328636169434,-64.55001068115234,Left
3143.789306640625,56181,1,1771.0,1807.0,1757.0,1764.0,1751.0,1753.0,1755.0,1753.0,-127.99284362792969,-14.400328636169434,-64.55001068115234,Left
3145.789306640625,56181,1,1773.0,1788.0,1757.0,1763.0,1751.0,1753.0,1753.0,1756.0,-127.99284362792969,-14.400328636169434,-64.55001068115234,Left
3138.28125,56182,1,1772.0,1747.0,1756.0,1752.0,1752.0,1752.0,1756.0,1757.0,-127.99284362792969,-14.400328636169434,-64.55001068115234,Left
3140.28125,56182,1,1775.0,1756.0,1766.0,1755.0,1751.0,1749.0,1755.0,1757.0,-127.99284362792969,-14.400328636169434,-64.55001068115234,Left
3142.28125,56182,1,1763.0,1741.0,1759.0,1765.0,1752.0,1753.0,1758.0,1752.0,-127.99284362792969,-14.400328636169434,-64.55001068115234,Left
3144.28125,56182,1,1767.0,1781.0,1765.0,1797.0,1753.0,1743.0,1755.0,1752.0,-127.99284362792969,-14.400328636169434,-64.55001068115234,Left
3146.28125,56182,1,1756.0,1789.0,1755.0,1779.0,1752.0,1753.0,1755.0,1751.0,-127.99284362792969,-14.400328636169434,-64.55001068115234,Left
3138.7353515625,56183,1,1755.0,1725.0,1703.0,1725.0,1753.0,1752.0,1757.0,1741.0,-127.99284362792969,-14.400328636169434,-64.55001068115234,Left
3140.7353515625,56183,1,1755.0,1711.0,1737.0,1700.0,1752.0,1752.0,1757.0,1734.0,-127.99284362792969,-14.400328636169434,-64.55001068115234,Left
3142.7353515625,56183,1,1749.0,1683.0,1757.0,1735.0,1749.0,1753.0,1757.0,1750.0,-127.99284362792969,-14.400328636169434,-64.55001068115234,Left
3144.7353515625,56183,1,1751.0,1758.0,1759.0,1767.0,1748.0,1753.0,1758.0,1753.0,-127.99284362792969,-14.400328636169434,-64.55001068115234,Left
3146.7353515625,56183,1,1749.0,1767.0,1758.0,1783.0,1752.0,1753.0,1759.0,1751.0,-127.99284362792969,-14.400328636169434,-64.55001068115234,Left
3139.207275390625,56184,1,1762.0,1786.0,1765.0,1786.0,1749.0,1752.0,1759.0,1754.0,-127.99284362792969,-14.400328636169434,-64.55001068115234,Left
3141.207275390625,56184,1,1765.0,1779.0,1757.0,1759.0,1749.0,1755.0,1759.0,1753.0,-127.99284362792969,-14.400328636169434,-64.55001068115234,Left
3143.207275390625,56184,1,1765.0,1759.0,1752.0,1747.0,1753.0,1753.0,1755.0,1751.0,-127.99284362792969,-14.400328636169434,-64.55001068115234,Left
3145.207275390625,56184,1,1759.0,1734.0,1751.0,1739.0,1752.0,1753.0,1759.0,1752.0,-127.99284362792969,-14.400328636169434,-64.55001068115234,Left
3147.207275390625,56184,1,1766.0,1779.0,1768.0,1759.0,1751.0,1752.0,1754.0,1753.0,-127.99284362792969,-14.400328636169434,-64.55001068115234,Left
3139.737060546875,56185,1,1742.0,1638.0,1753.0,1708.0,1740.0,1747.0,1755.0,1725.0,-127.99284362792969,-14.400328636169434,-64.55001068115234,Left
3141.737060546875,56185,1,1741.0,1763.0,1757.0,1781.0,1753.0,1753.0,1758.0,1750.0,-127.99284362792969,-14.400328636169434,-64.55001068115234,Left
3143.737060546875,56185,1,1751.0,1823.0,1765.0,1785.0,1747.0,1753.0,1761.0,1750.0,-127.99284362792969,-14.400328636169434,-64.55001068115234,Left
3145.737060546875,56185,1,1764.0,1829.0,1757.0,1768.0,1750.0,1751.0,1758.0,1750.0,-127.99284362792969,-14.400328636169434,-64.55001068115234,Left
3147.737060546875,56185,1,1767.0,1801.0,1747.0,1739.0,1752.0,1753.0,1763.0,1751.0,-127.99284362792969,-14.400328636169434,-64.55001068115234,Left
3140.29736328125,56186,1,1786.0,1737.0,1769.0,1755.0,1751.0,1752.0,1761.0,1771.0,-127.99284362792969,-14.400328636169434,-64.55001068115234,Left
3142.29736328125,56186,1,1799.0,1695.0,1769.0,1745.0,1753.0,1753.0,1757.0,1765.0,-128.21299743652344,-14.724040031433105,-63.80045700073242,Left
3144.29736328125,56186,1,1779.0,1733.0,1770.0,1763.0,1752.0,1751.0,1757.0,1757.0,-128.21299743652344,-14.724040031433105,-63.80045700073242,Left
3146.29736328125,56186,1,1755.0,1803.0,1759.0,1783.0,1752.0,1753.0,1762.0,1747.0,-128.21299743652344,-14.724040031433105,-63.80045700073242,Left
3148.29736328125,56186,1,1748.0,1833.0,1753.0,1783.0,1751.0,1752.0,1758.0,1745.0,-128.21299743652344,-14.724040031433105,-63.80045700073242,Left
3140.853271484375,56187,1,1752.0,1788.0,1757.0,1773.0,1748.0,1752.0,1754.0,1742.0,-128.21299743652344,-14.724040031433105,-63.80045700073242,Left
3142.853271484375,56187,1,1754.0,1764.0,1749.0,1763.0,1753.0,1753.0,1759.0,1745.0,-128.21299743652344,-14.724040031433105,-63.80045700073242,Left
3144.853271484375,56187,1,1749.0,1721.0,1753.0,1736.0,1752.0,1753.0,1765.0,1740.0,-128.21299743652344,-14.724040031433105,-63.80045700073242,Left
3146.853271484375,56187,1,1755.0,1679.0,1751.0,1723.0,1751.0,1750.0,1759.0,1743.0,-128.21299743652344,-14.724040031433105,-63.80045700073242,Left
3148.853271484375,56187,1,1752.0,1741.0,1753.0,1755.0,1748.0,1753.0,1762.0,1755.0,-128.21299743652344,-14.724040031433105,-63.80045700073242,Left
3141.226318359375,56188,1,1756.0,1765.0,1756.0,1776.0,1751.0,1751.0,1759.0,1752.0,-128.21299743652344,-14.724040031433105,-63.80045700073242,Left
3143.226318359375,56188,1,1769.0,1789.0,1770.0,1804.0,1752.0,1752.0,1757.0,1761.0,-128.21299743652344,-14.724040031433105,-63.80045700073242,Left
3145.226318359375,56188,1,1758.0,1827.0,1769.0,1787.0,1751.0,1751.0,1763.0,1756.0,-128.21299743652344,-14.724040031433105,-63.80045700073242,Left
3147.226318359375,56188,1,1751.0,1787.0,1737.0,1753.0,1751.0,1755.0,1759.0,1725.0,-128.21299743652344,-14.724040031433105,-63.80045700073242,Left
3149.226318359375,56188,1,1734.0,1725.0,1753.0,1726.0,1753.0,1751.0,1758.0,1748.0,-128.21299743652344,-14.724040031433105,-63.80045700073242,Left
3141.855224609375,56189,1,1753.0,1747.0,1773.0,1779.0,1753.0,1751.0,1757.0,1747.0,-128.21299743652344,-14.724040031433105,-63.80045700073242,Left
3143.855224609375,56189,1,1752.0,1718.0,1748.0,1752.0,1749.0,1753.0,1763.0,1741.0,-128.21299743652344,-14.724040031433105,-63.80045700073242,Left
3145.855224609375,56189,1,1757.0,1813.0,1763.0,1751.0,1753.0,1755.0,1754.0,1763.0,-128.21299743652344,-14.724040031433105,-63.80045700073242,Left
3147.855224609375,56189,1,1765.0,1743.0,1747.0,1676.0,1749.0,1753.0,1763.0,1751.0,-128.21299743652344,-14.724040031433105,-63.80045700073242,Left
3149.855224609375,56189,1,1751.0,1695.0,1737.0,1669.0,1752.0,1753.0,1757.0,1740.0,-128.21299743652344,-14.724040031433105,-63.80045700073242,Left
3142.162353515625,56190,1,1771.0,1755.0,1763.0,1773.0,1749.0,1751.0,1757.0,1753.0,-128.21299743652344,-14.724040031433105,-63.80045700073242,Left
3144.162353515625,56190,1,1771.0,1739.0,1761.0,1791.0,1749.0,1753.0,1759.0,1766.0,-128.21299743652344,-14.724040031433105,-63.80045700073242,Left
3146.162353515625,56190,1,1765.0,1823.0,1775.0,1879.0,1749.0,1753.0,1764.0,1767.0,-128.21299743652344,-14.724040031433105,-63.80045700073242,Left
3148.162353515625,56190,1,1769.0,1885.0,1779.0,1893.0,1754.0,1755.0,1757.0,1764.0,-128.21299743652344,-14.724040031433105,-63.80045700073242,Left
3150.162353515625,56190,1,1785.0,1849.0,1767.0,1791.0,1753.0,1752.0,1759.0,1749.0,-128.21299743652344,-14.724040031433105,-63.80045700073242,Left
3142.458251953125,56191,1,1739.0,1737.0,1725.0,1644.0,1747.0,1751.0,1762.0,1739.0,-128.21299743652344,-14.724040031433105,-63.80045700073242,Left
3144.458251953125,56191,1,1771.0,1612.0,1757.0,1606.0,1752.0,1753.0,1763.0,1757.0,-128.21299743652344,-14.724040031433105,-63.80045700073242,Left
3146.458251953125,56191,1,1734.0,1575.0,1736.0,1641.0,1751.0,1754.0,1757.0,1723.0,-128.21299743652344,-14.724040031433105,-63.80045700073242,Left
3148.458251953125,56191,1,1719.0,1653.0,1747.0,1766.0,1755.0,1754.0,1763.0,1743.0,-128.21299743652344,-14.724040031433105,-63.80045700073242,Left
3150.458251953125,56191,1,1761.0,1582.0,1773.0,1717.0,1753.0,1751.0,1763.0,1753.0,-128.21299743652344,-14.724040031433105,-63.80045700073242,Left
3142.826416015625,56192,1,1751.0,1741.0,1740.0,1853.0,1752.0,1753.0,1761.0,1743.0,-128.21299743652344,-14.724040031433105,-63.80045700073242,Left
3144.826416015625,56192,1,1782.0,1992.0,1787.0,1881.0,1752.0,1751.0,1761.0,1773.0,-128.21299743652344,-14.724040031433105,-63.80045700073242,Left
3146.826416015625,56192,1,1787.0,1981.0,1771.0,1816.0,1753.0,1750.0,1759.0,1755.0,-128.21299743652344,-14.724040031433105,-63.80045700073242,Left
3148.826416015625,56192,1,1811.0,1913.0,1750.0,1715.0,1751.0,1749.0,1763.0,1751.0,-126.91443634033203,-15.178009033203125,-62.860530853271484,Left
3150.826416015625,56192,1,1791.0,1790.0,1737.0,1699.0,1753.0,1754.0,1763.0,1771.0,-126.91443634033203,-15.178009033203125,-62.860530853271484,Left
3143.216064453125,56193,1,1787.0,1769.0,1749.0,1763.0,1753.0,1753.0,1757.0,1752.0,-126.91443634033203,-15.178009033203125,-62.860530853271484,Left
3145.216064453125,56193,1,1763.0,1705.0,1771.0,1773.0,1751.0,1755.0,1759.0,1763.0,-126.91443634033203,-15.178009033203125,-62.860530853271484,Left
3147.216064453125,56193,1,1755.0,1791.0,1789.0,1815.0,1753.0,1752.0,1758.0,1767.0,-126.91443634033203,-15.178009033203125,-62.860530853271484,Left
3149.216064453125,56193,1,1763.0,1779.0,1789.0,1837.0,1752.0,1749.0,1763.0,1763.0,-126.91443634033203,-15.178009033203125,-62.860530853271484,Left
3151.216064453125,56193,1,1749.0,1748.0,1762.0,1765.0,1753.0,1752.0,1762.0,1739.0,-126.91443634033203,-15.178009033203125,-62.860530853271484,Left
3143.807373046875,56194,1,1739.0,1783.0,1768.0,1787.0,1749.0,1752.0,1761.0,1754.0,-126.91443634033203,-15.178009033203125,-62.860530853271484,Left
3145.807373046875,56194,1,1723.0,1699.0,1719.0,1627.0,1752.0,1751.0,1761.0,1688.0,-126.91443634033203,-15.178009033203125,-62.860530853271484,Left
3147.807373046875,56194,1,1704.0,1559.0,1724.0,1593.0,1752.0,1749.0,1761.0,1719.0,-126.91443634033203,-15.178009033203125,-62.860530853271484,Left
3149.807373046875,56194,1,1719.0,1629.0,1721.0,1598.0,1752.0,1755.0,1763.0,1717.0,-126.91443634033203,-15.178009033203125,-62.860530853271484,Left
3151.807373046875,56194,1,1747.0,1804.0,1737.0,1880.0,1749.0,1747.0,1757.0,1753.0,-126.91443634033203,-15.178009033203125,-62.860530853271484,Left
3144.38232421875,56195,1,1769.0,1837.0,1791.0,1949.0,1749.0,1751.0,1765.0,1775.0,-126.91443634033203,-15.178009033203125,-62.860530853271484,Left
3146.38232421875,56195,1,1767.0,1899.0,1800.0,1931.0,1749.0,1751.0,1762.0,1763.0,-126.91443634033203,-15.178009033203125,-62.860530853271484,Left
3148.38232421875,56195,1,1757.0,1746.0,1789.0,1692.0,1753.0,1749.0,1757.0,1759.0,-126.91443634033203,-15.178009033203125,-62.860530853271484,Left
3150.38232421875,56195,1,1720.0,1541.0,1703.0,1497.0,1751.0,1754.0,1762.0,1686.0,-126.91443634033203,-15.178009033203125,-62.860530853271484,Left
3152.38232421875,56195,1,1727.0,1643.0,1703.0,1560.0,1737.0,1753.0,1763.0,1733.0,-126.91443634033203,-15.178009033203125,-62.860530853271484,Left
3144.97119140625,56196,1,1799.0,1767.0,1749.0,1775.0,1721.0,1753.0,1755.0,1767.0,-126.91443634033203,-15.178009033203125,-62.860530853271484,Left
3146.97119140625,56196,1,1799.0,1873.0,1769.0,1839.0,3798.0,1749.0,1763.0,1765.0,-126.91443634033203,-15.178009033203125,-62.860530853271484,Left
3148.97119140625,56196,1,1807.0,1894.0,1788.0,1907.0,3795.0,1752.0,1759.0,1781.0,-126.91443634033203,-15.178009033203125,-62.860530853271484,Left
3150.97119140625,56196,1,1783.0,1848.0,1803.0,1879.0,3797.0,1752.0,1763.0,1781.0,-126.91443634033203,-15.178009033203125,-62.860530853271484,Left
3152.97119140625,56196,1,1759.0,1768.0,1763.0,1773.0,3800.0,1752.0,1757.0,1747.0,-126.91443634033203,-15.178009033203125,-62.860530853271484,Left
3145.422119140625,56197,1,1739.0,1880.0,1763.0,1837.0,3796.0,1753.0,1757.0,1747.0,-126.91443634033203,-15.178009033203125,-62.860530853271484,Left
3147.422119140625,56197,1,1715.0,1693.0,1721.0,1605.0,3796.0,1753.0,1759.0,1716.0,-126.91443634033203,-15.178009033203125,-62.860530853271484,Left
3149.422119140625,56197,1,1710.0,1709.0,1726.0,1763.0,3790.0,1753.0,1765.0,1715.0,-126.91443634033203,-15.178009033203125,-62.860530853271484,Left
3151.422119140625,56197,1,1799.0,1674.0,1772.0,1773.0,3803.0,1752.0,1762.0,1767.0,-126.91443634033203,-15.178009033203125,-62.860530853271484,Left
3153.422119140625,56197,1,1772.0,1653.0,1763.0,1694.0,3800.0,1749.0,1762.0,1757.0,-126.91443634033203,-15.178009033203125,-62.860530853271484,Left
3145.72802734375,56198,1,1743.0,1781.0,1770.0,1766.0,3801.0,1753.0,1763.0,1749.0,-126.91443634033203,-15.178009033203125,-62.860530853271484,Left
3147.72802734375,56198,1,1754.0,1931.0,1765.0,1828.0,3802.0,1749.0,1762.0,1743.0,-126.91443634033203,-15.178009033203125,-62.860530853271484,Left
3149.72802734375,56198,1,1801.0,1976.0,1789.0,1871.0,3796.0,1752.0,1762.0,1770.0,-126.91443634033203,-15.178009033203125,-62.860530853271484,Left
3151.72802734375,56198,1,1767.0,1746.0,1727.0,1805.0,3799.0,1752.0,1765.0,1738.0,-126.91443634033203,-15.178009033203125,-62.860530853271484,Left
3153.72802734375,56198,1,1754.0,1587.0,1738.0,1576.0,3805.0,1752.0,1759.0,1721.0,-126.91443634033203,-15.178009033203125,-62.860530853271484,Left
3145.986083984375,56199,1,1747.0,1541.0,1740.0,1564.0,3809.0,1746.0,1759.0,1711.0,-126.91443634033203,-15.178009033203125,-62.860530853271484,Left
3147.986083984375,56199,1,1707.0,1775.0,1725.0,1821.0,3804.0,1750.0,1757.0,1768.0,-121.44390869140625,-13.153799057006836,-60.9739875793457,Left
3149.986083984375,56199,1,1805.0,1819.0,1803.0,1848.0,3803.0,1753.0,1756.0,1781.0,-121.44390869140625,-13.153799057006836,-60.9739875793457,Left
3151.986083984375,56199,1,1775.0,1873.0,1776.0,1883.0,3594.0,1753.0,1759.0,1763.0,-121.44390869140625,-13.153799057006836,-60.9739875793457,Left
3153.986083984375,56199,1,1749.0,1749.0,1751.0,1736.0,3803.0,1753.0,1763.0,1748.0,-121.44390869140625,-13.153799057006836,-60.9739875793457,Left
3146.22119140625,56200,1,1783.0,1824.0,1755.0,1782.0,3805.0,1751.0,1762.0,1752.0,-121.44390869140625,-13.153799057006836,-60.9739875793457,Left
3148.22119140625,56200,1,1771.0,1708.0,1735.0,1679.0,3419.0,1754.0,1761.0,1749.0,-121.44390869140625,-13.153799057006836,-60.9739875793457,Left
3150.22119140625,56200,1,1767.0,1883.0,1755.0,1874.0,3069.0,1753.0,1763.0,1774.0,-121.44390869140625,-13.153799057006836,-60.9739875793457,Left
3152.22119140625,56200,1,1787.0,1801.0,1780.0,1775.0,2809.0,1752.0,1764.0,1761.0,-121.44390869140625,-13.153799057006836,-60.9739875793457,Left
3154.22119140625,56200,1,1773.0,1875.0,1765.0,1804.0,2619.0,1753.0,1763.0,1771.0,-121.44390869140625,-13.153799057006836,-60.9739875793457,Left
3148.50927734375,56201,1,1741.0,1675.0,1765.0,1701.0,2453.0,1753.0,1761.0,1752.0,-121.44390869140625,-13.153799057006836,-60.9739875793457,Left
3150.50927734375,56201,1,1772.0,1662.0,1789.0,1769.0,2332.0,1754.0,1755.0,1733.0,-121.44390869140625,-13.153799057006836,-60.9739875793457,Left
3152.50927734375,56201,1,1736.0,1608.0,1735.0,1645.0,2232.0,1753.0,1763.0,1720.0,-121.44390869140625,-13.153799057006836,-60.9739875793457,Left
3154.50927734375,56201,1,1703.0,1747.0,1695.0,1645.0,2149.0,1752.0,1755.0,1696.0,-121.44390869140625,-13.153799057006836,-60.9739875793457,Left
3156.50927734375,56201,1,1727.0,1849.0,1737.0,1779.0,2077.0,1752.0,1763.0,1757.0,-121.44390869140625,-13.153799057006836,-60.9739875793457,Left
3152.0439453125,56202,1,1783.0,1844.0,1781.0,1875.0,2011.0,1752.0,1763.0,1764.0,-121.44390869140625,-13.153799057006836,-60.9739875793457,Left
3154.0439453125,56202,1,1780.0,1772.0,1768.0,1747.0,1967.0,1751.0,1769.0,1751.0,-121.44390869140625,-13.153799057006836,-60.9739875793457,Left
3156.0439453125,56202,1,1774.0,1817.0,1767.0,1917.0,1937.0,1749.0,1764.0,1759.0,-121.44390869140625,-13.153799057006836,-60.9739875793457,Left
3158.0439453125,56202,1,1773.0,1597.0,1775.0,1511.0,1903.0,1752.0,1763.0,1734.0,-121.44390869140625,-13.153799057006836,-60.9739875793457,Left
3160.0439453125,56202,1,1767.0,1767.0,1772.0,1887.0,1880.0,1755.0,1764.0,1773.0,-121.44390869140625,-13.153799057006836,-60.9739875793457,Left
3152.348388671875,56203,1,1755.0,1786.0,1717.0,1785.0,1862.0,1752.0,1762.0,1721.0,-121.44390869140625,-13.153799057006836,-60.9739875793457,Left
3154.348388671875,56203,1,1755.0,1877.0,1753.0,1820.0,1849.0,1748.0,1763.0,1748.0,-121.44390869140625,-13.153799057006836,-60.9739875793457,Left
3156.348388671875,56203,1,1775.0,1753.0,1770.0,1727.0,1829.0,1753.0,1757.0,1738.0,-121.44390869140625,-13.153799057006836,-60.9739875793457,Left
3158.348388671875,56203,1,1773.0,1613.0,1735.0,1641.0,1819.0,1751.0,1763.0,1726.0,-121.44390869140625,-13.153799057006836,-60.9739875793457,Left
3160.348388671875,56203,1,1784.0,1638.0,1745.0,1626.0,1813.0,1752.0,1764.0,1745.0,-121.44390869140625,-13.153799057006836,-60.9739875793457,Left
3162.2802734375,56204,1,1767.0,1704.0,1753.0,1717.0,1804.0,1771.0,1759.0,1743.0,-121.44390869140625,-13.153799057006836,-60.9739875793457,Left
3164.2802734375,56204,1,1773.0,1947.0,1781.0,1903.0,1797.0,1752.0,1763.0,1737.0,-121.44390869140625,-13.153799057006836,-60.9739875793457,Left
3166.2802734375,56204,1,1763.0,1809.0,1776.0,1787.0,1789.0,1752.0,1762.0,1755.0,-121.44390869140625,-13.153799057006836,-60.9739875793457,Left
3168.2802734375,56204,1,1768.0,1659.0,1757.0,1775.0,1785.0,1753.0,1764.0,1757.0,-121.44390869140625,-13.153799057006836,-60.9739875793457,Left
3170.2802734375,56204,1,1756.0,1782.0,1791.0,1870.0,1783.0,1753.0,1757.0,1763.0,-121.44390869140625,-13.153799057006836,-60.9739875793457,Left
3188.62109375,56205,1,1738.0,1749.0,1773.0,1743.0,1775.0,1754.0,1756.0,1747.0,-121.44390869140625,-13.153799057006836,-60.9739875793457,Left
3190.62109375,56205,1,1749.0,1735.0,1781.0,1628.0,1775.0,1753.0,1757.0,1759.0,-121.44390869140625,-13.153799057006836,-60.9739875793457,Left
3192.62109375,56205,1,1727.0,1625.0,1743.0,1656.0,1775.0,1752.0,1763.0,1753.0,-121.44390869140625,-13.153799057006836,-60.9739875793457,Left
3194.62109375,56205,1,1738.0,1873.0,1747.0,1896.0,1771.0,1755.0,1763.0,1752.0,-118.9462661743164,-8.960320472717285,-58.522705078125,Left
3196.62109375,56205,1,1773.0,1830.0,1779.0,1834.0,1769.0,1754.0,1763.0,1774.0,-118.9462661743164,-8.960320472717285,-58.522705078125,Left
3376.82421875,56206,1,1721.0,1763.0,1734.0,1785.0,1767.0,1753.0,1763.0,1727.0,-118.9462661743164,-8.960320472717285,-58.522705078125,Left
3378.82421875,56206,1,1752.0,1783.0,1750.0,1831.0,1741.0,1749.0,1755.0,1747.0,-118.9462661743164,-8.960320472717285,-58.522705078125,Left
3380.82421875,56206,1,1764.0,1737.0,1759.0,1741.0,1765.0,1753.0,1763.0,1743.0,-118.9462661743164,-8.960320472717285,-58.522705078125,Left
3382.82421875,56206,1,1741.0,1767.0,1741.0,1741.0,1765.0,1752.0,1761.0,1736.0,-118.9462661743164,-8.960320472717285,-58.522705078125,Left
3384.82421875,56206,1,1749.0,1812.0,1785.0,1751.0,1764.0,1753.0,1756.0,1750.0,-118.9462661743164,-8.960320472717285,-58.522705078125,Left
3377.47021484375,56207,1,1739.0,1799.0,1777.0,1763.0,1764.0,1751.0,1756.0,1751.0,-118.9462661743164,-8.960320472717285,-58.522705078125,Left
3379.47021484375,56207,1,1755.0,1749.0,1765.0,1763.0,1764.0,1750.0,1759.0,1740.0,-118.9462661743164,-8.960320472717285,-58.522705078125,Left
3381.47021484375,56207,1,1780.0,1727.0,1767.0,1757.0,1763.0,1753.0,1763.0,1757.0,-118.9462661743164,-8.960320472717285,-58.522705078125,Left
3383.47021484375,56207,1,1776.0,1752.0,1759.0,1769.0,1765.0,1752.0,1759.0,1765.0,-118.9462661743164,-8.960320472717285,-58.522705078125,Left
3385.47021484375,56207,1,1784.0,1813.0,1769.0,1821.0,1765.0,1753.0,1761.0,1765.0,-118.9462661743164,-8.960320472717285,-58.522705078125,Left
3378.2802734375,56208,1,1746.0,1871.0,1764.0,1876.0,1759.0,1753.0,1763.0,1753.0,-118.9462661743164,-8.960320472717285,-58.522705078125,Left
3380.2802734375,56208,1,1766.0,1875.0,1781.0,1929.0,1763.0,1755.0,1762.0,1773.0,-118.9462661743164,-8.960320472717285,-58.522705078125,Left
3382.2802734375,56208,1,1773.0,1613.0,1699.0,1427.0,1759.0,1751.0,1763.0,1709.0,-118.9462661743164,-8.960320472717285,-58.522705078125,Left
3384.2802734375,56208,1,1753.0,1593.0,1693.0,1561.0,1759.0,1754.0,1759.0,1721.0,-118.9462661743164,-8.960320472717285,-58.522705078125,Left
3386.2802734375,56208,1,1771.0,1757.0,1723.0,1743.0,1763.0,1749.0,1763.0,1762.0,-118.9462661743164,-8.960320472717285,-58.522705078125,Left
3378.690185546875,56209,1,1807.0,1704.0,1749.0,1727.0,1755.0,1753.0,1757.0,1752.0,-118.9462661743164,-8.960320472717285,-58.522705078125,Left
3380.690185546875,56209,1,1807.0,1817.0,1771.0,1880.0,1759.0,1754.0,1763.0,1779.0,-118.9462661743164,-8.960320472717285,-58.522705078125,Left
3382.690185546875,56209,1,1787.0,1907.0,1779.0,1955.0,1758.0,1752.0,1764.0,1769.0,-118.9462661743164,-8.960320472717285,-58.522705078125,Left
3384.690185546875,56209,1,1775.0,1823.0,1756.0,1817.0,1758.0,1752.0,1763.0,1740.0,-118.9462661743164,-8.960320472717285,-58.522705078125,Left
3386.690185546875,56209,1,1753.0,1606.0,1747.0,1588.0,1759.0,1754.0,1763.0,1741.0,-118.9462661743164,-8.960320472717285,-58.522705078125,Left
3379.348388671875,56210,1,1765.0,1791.0,1754.0,1735.0,1756.0,1751.0,1763.0,1733.0,-118.9462661743164,-8.960320472717285,-58.522705078125,Left
3381.348388671875,56210,1,1752.0,1660.0,1725.0,1669.0,1762.0,1753.0,1757.0,1749.0,-118.9462661743164,-8.960320472717285,-58.522705078125,Left
3383.348388671875,56210,1,1751.0,1769.0,1736.0,1735.0,1757.0,1752.0,1765.0,1727.0,-118.9462661743164,-8.960320472717285,-58.522705078125,Left
3385.348388671875,56210,1,1749.0,1749.0,1763.0,1790.0,1757.0,1753.0,1759.0,1759.0,-118.9462661743164,-8.960320472717285,-58.522705078125,Left
3387.348388671875,56210,1,1742.0,1787.0,1749.0,1774.0,1759.0,1748.0,1763.0,1752.0,-118.9462661743164,-8.960320472717285,-58.522705078125,Left
3379.756103515625,56211,1,1755.0,1749.0,1780.0,1817.0,1757.0,1754.0,1763.0,1762.0,-118.9462661743164,-8.960320472717285,-58.522705078125,Left
3381.756103515625,56211,1,1799.0,1911.0,1771.0,1927.0,1755.0,1754.0,1757.0,1762.0,-118.9462661743164,-8.960320472717285,-58.522705078125,Left
3383.756103515625,56211,1,1762.0,1848.0,1768.0,1759.0,1757.0,1751.0,1764.0,1737.0,-118.9462661743164,-8.960320472717285,-58.522705078125,Left
3385.756103515625,56211,1,1735.0,1614.0,1726.0,1627.0,1756.0,1748.0,1757.0,1727.0,-118.9462661743164,-8.960320472717285,-58.522705078125,Left
3387.756103515625,56211,1,1745.0,1737.0,1757.0,1715.0,1756.0,1749.0,1765.0,1739.0,-118.9462661743164,-8.960320472717285,-58.522705078125,Left
3380.22021484375,56212,1,1756.0,1736.0,1797.0,1671.0,1756.0,1749.0,1763.0,1756.0,-118.9462661743164,-8.960320472717285,-58.522705078125,Left
3382.22021484375,56212,1,1757.0,1711.0,1753.0,1781.0,1757.0,1753.0,1763.0,1757.0,-118.07921600341797,-9.638136863708496,-53.44607162475586,Left
3384.22021484375,56212,1,1797.0,1852.0,1807.0,1864.0,1757.0,1755.0,1759.0,1789.0,-118.07921600341797,-9.638136863708496,-53.44607162475586,Left
3386.22021484375,56212,1,1754.0,1813.0,1755.0,1785.0,1753.0,1749.0,1759.0,1711.0,-118.07921600341797,-9.638136863708496,-53.44607162475586,Left
3388.22021484375,56212,1,1705.0,1674.0,1693.0,1635.0,1755.0,1753.0,1759.0,1715.0,-118.07921600341797,-9.638136863708496,-53.44607162475586,Left
3380.675048828125,56213,1,1751.0,1743.0,1733.0,1723.0,1756.0,1753.0,1764.0,1735.0,-118.07921600341797,-9.638136863708496,-53.44607162475586,Left
3382.675048828125,56213,1,1755.0,1791.0,1765.0,1749.0,1756.0,1753.0,1759.0,1775.0,-118.07921600341797,-9.638136863708496,-53.44607162475586,Left
3384.675048828125,56213,1,1780.0,1789.0,1763.0,1727.0,1756.0,1752.0,1763.0,1749.0,-118.07921600341797,-9.638136863708496,-53.44607162475586,Left
3386.675048828125,56213,1,1797.0,1724.0,1771.0,1763.0,1758.0,1751.0,1763.0,1758.0,-118.07921600341797,-9.638136863708496,-53.44607162475586,Left
3388.675048828125,56213,1,1759.0,1828.0,1772.0,1839.0,1757.0,1751.0,1758.0,1755.0,-118.07921600341797,-9.638136863708496,-53.44607162475586,Left
3381.159423828125,56214,1,1771.0,1752.0,1769.0,1739.0,1757.0,1754.0,1756.0,1762.0,-118.07921600341797,-9.638136863708496,-53.44607162475586,Left
3383.159423828125,56214,1,1771.0,1701.0,1749.0,1736.0,1755.0,1753.0,1757.0,1747.0,-118.07921600341797,-9.638136863708496,-53.44607162475586,Left
3385.159423828125,56214,1,1774.0,1822.0,1758.0,1805.0,1757.0,1752.0,1756.0,1750.0,-118.07921600341797,-9.638136863708496,-53.44607162475586,Left
3387.159423828125,56214,1,1768.0,1899.0,1759.0,1919.0,1757.0,1749.0,1763.0,1763.0,-118.07921600341797,-9.638136863708496,-53.44607162475586,Left
3389.159423828125,56214,1,1783.0,1739.0,1767.0,1689.0,1757.0,1752.0,1763.0,1753.0,-118.07921600341797,-9.638136863708496,-53.44607162475586,Left
3381.63720703125,56215,1,1719.0,1556.0,1718.0,1545.0,1757.0,1747.0,1764.0,1726.0,-118.07921600341797,-9.638136863708496,-53.44607162475586,Left
3383.63720703125,56215,1,1742.0,1747.0,1735.0,1801.0,1757.0,1753.0,1755.0,1748.0,-118.07921600341797,-9.638136863708496,-53.44607162475586,Left
3385.63720703125,56215,1,1774.0,1751.0,1771.0,1754.0,1755.0,1753.0,1759.0,1735.0,-118.07921600341797,-9.638136863708496,-53.44607162475586,Left
3387.63720703125,56215,1,1739.0,1821.0,1733.0,1861.0,1758.0,1752.0,1757.0,1723.0,-118.07921600341797,-9.638136863708496,-53.44607162475586,Left
3389.63720703125,56215,1,1765.0,1775.0,1734.0,1675.0,1756.0,1749.0,1764.0,1741.0,-118.07921600341797,-9.638136863708496,-53.44607162475586,Left
3381.96142578125,56216,1,1781.0,1789.0,1775.0,1759.0,1752.0,1747.0,1761.0,1763.0,-118.07921600341797,-9.638136863708496,-53.44607162475586,Left
3383.96142578125,56216,1,1773.0,1763.0,1785.0,1819.0,1755.0,1753.0,1755.0,1771.0,-118.07921600341797,-9.638136863708496,-53.44607162475586,Left
3385.96142578125,56216,1,1798.0,1915.0,1817.0,1999.0,1755.0,1753.0,1762.0,1779.0,-118.07921600341797,-9.638136863708496,-53.44607162475586,Left
3387.96142578125,56216,1,1761.0,1843.0,1766.0,1747.0,1757.0,1756.0,1757.0,1723.0,-118.07921600341797,-9.638136863708496,-53.44607162475586,Left
3389.96142578125,56216,1,1759.0,1589.0,1735.0,1547.0,1757.0,1753.0,1763.0,1725.0,-118.07921600341797,-9.638136863708496,-53.44607162475586,Left
3382.4208984375,56217,1,1756.0,1645.0,1757.0,1701.0,1757.0,1753.0,1762.0,1747.0,-118.07921600341797,-9.638136863708496,-53.44607162475586,Left
3384.4208984375,56217,1,1767.0,1709.0,1765.0,1755.0,1755.0,1761.0,1763.0,1755.0,-118.07921600341797,-9.638136863708496,-53.44607162475586,Left
3386.4208984375,56217,1,1757.0,1812.0,1773.0,1784.0,1753.0,1751.0,1763.0,1741.0,-118.07921600341797,-9.638136863708496,-53.44607162475586,Left
3388.4208984375,56217,1,1755.0,1785.0,1753.0,1812.0,1756.0,1754.0,1759.0,1721.0,-118.07921600341797,-9.638136863708496,-53.44607162475586,Left
3390.4208984375,56217,1,1767.0,1761.0,1764.0,1819.0,1757.0,1752.0,1759.0,1769.0,-118.07921600341797,-9.638136863708496,-53.44607162475586,Left
3392.231201171875,56218,1,1783.0,1863.0,1774.0,1813.0,1757.0,1754.0,1756.0,1771.0,-118.07921600341797,-9.638136863708496,-53.44607162475586,Left
3394.231201171875,56218,1,1776.0,1851.0,1783.0,1853.0,1757.0,1749.0,1765.0,1763.0,-118.07921600341797,-9.638136863708496,-53.44607162475586,Left
3396.231201171875,56218,1,1763.0,1769.0,1753.0,1759.0,1756.0,1753.0,1763.0,1735.0,-118.07921600341797,-9.638136863708496,-53.44607162475586,Left
3398.231201171875,56218,1,1773.0,1691.0,1763.0,1790.0,1727.0,1753.0,1763.0,1767.0,-120.2384033203125,-9.31530475616455,-55.348167419433594,Left
3400.231201171875,56218,1,1747.0,1718.0,1737.0,1707.0,1757.0,1757.0,1757.0,1703.0,-120.2384033203125,-9.31530475616455,-55.348167419433594,Left
3394.6982421875,56219,1,1727.0,1763.0,1735.0,1784.0,1753.0,1749.0,1759.0,1735.0,-120.2384033203125,-9.31530475616455,-55.348167419433594,Left
3396.6982421875,56219,1,1755.0,1639.0,1747.0,1559.0,1756.0,1752.0,1759.0,1725.0,-120.2384033203125,-9.31530475616455,-55.348167419433594,Left
3398.6982421875,56219,1,1743.0,1724.0,1751.0,1663.0,1758.0,1759.0,1764.0,1756.0,-120.2384033203125,-9.31530475616455,-55.348167419433594,Left
3400.6982421875,56219,1,1759.0,1757.0,1758.0,1752.0,1756.0,1754.0,1761.0,1742.0,-120.2384033203125,-9.31530475616455,-55.348167419433594,Left
3402.6982421875,56219,1,1748.0,1769.0,1780.0,1839.0,1757.0,1754.0,1763.0,1767.0,-120.2384033203125,-9.31530475616455,-55.348167419433594,Left
3395.2099609375,56220,1,1775.0,1819.0,1771.0,1843.0,1755.0,1752.0,1763.0,1753.0,-120.2384033203125,-9.31530475616455,-55.348167419433594,Left
3397.2099609375,56220,1,1797.0,1824.0,1771.0,1783.0,1755.0,1752.0,1757.0,1769.0,-120.2384033203125,-9.31530475616455,-55.348167419433594,Left
3399.2099609375,56220,1,1787.0,1827.0,1799.0,1789.0,1755.0,1752.0,1757.0,1759.0,-120.2384033203125,-9.31530475616455,-55.348167419433594,Left
3401.2099609375,56220,1,1715.0,1673.0,1673.0,1599.0,1753.0,1754.0,1756.0,1704.0,-120.2384033203125,-9.31530475616455,-55.348167419433594,Left
3403.2099609375,56220,1,1747.0,1687.0,1773.0,1789.0,1751.0,1752.0,1761.0,1763.0,-120.2384033203125,-9.31530475616455,-55.348167419433594,Left
3396.026123046875,56221,1,1765.0,1763.0,1757.0,1719.0,1757.0,1752.0,1763.0,1747.0,-120.2384033203125,-9.31530475616455,-55.348167419433594,Left
3398.026123046875,56221,1,1739.0,1830.0,1741.0,1772.0,1755.0,1752.0,1756.0,1741.0,-120.2384033203125,-9.31530475616455,-55.348167419433594,Left
3400.026123046875,56221,1,1767.0,1753.0,1769.0,1801.0,1757.0,1754.0,1764.0,1779.0,-120.2384033203125,-9.31530475616455,-55.348167419433594,Left
3402.026123046875,56221,1,1769.0,1757.0,1763.0,1770.0,1751.0,1755.0,1765.0,1742.0,-120.2384033203125,-9.31530475616455,-55.348167419433594,Left
3404.026123046875,56221,1,1753.0,1763.0,1752.0,1763.0,1757.0,1751.0,1763.0,1765.0,-120.2384033203125,-9.31530475616455,-55.348167419433594,Left
3396.40234375,56222,1,1756.0,1779.0,1759.0,1773.0,1753.0,1751.0,1755.0,1747.0,-120.2384033203125,-9.31530475616455,-55.348167419433594,Left
3398.40234375,56222,1,1765.0,1807.0,1765.0,1833.0,1753.0,1753.0,1757.0,1756.0,-120.2384033203125,-9.31530475616455,-55.348167419433594,Left
3400.40234375,56222,1,1740.0,1759.0,1769.0,1823.0,1751.0,1751.0,1759.0,1748.0,-120.2384033203125,-9.31530475616455,-55.348167419433594,Left
3402.40234375,56222,1,1769.0,1615.0,1756.0,1663.0,1754.0,1750.0,1757.0,1757.0,-120.2384033203125,-9.31530475616455,-55.348167419433594,Left
3404.40234375,56222,1,1781.0,1879.0,1775.0,1822.0,1755.0,1753.0,1759.0,1741.0,-120.2384033203125,-9.31530475616455,-55.348167419433594,Left
3396.933349609375,56223,1,1735.0,1851.0,1689.0,1643.0,1754.0,1743.0,1756.0,1708.0,-120.2384033203125,-9.31530475616455,-55.348167419433594,Left
3398.933349609375,56223,1,1723.0,1587.0,1756.0,1695.0,1756.0,1751.0,1757.0,1751.0,-120.2384033203125,-9.31530475616455,-55.348167419433594,Left
3400.933349609375,56223,1,1748.0,1759.0,1739.0,1751.0,1753.0,1753.0,1761.0,1753.0,-120.2384033203125,-9.31530475616455,-55.348167419433594,Left
3402.933349609375,56223,1,1763.0,1739.0,1765.0,1735.0,1755.0,1753.0,1763.0,1765.0,-120.2384033203125,-9.31530475616455,-55.348167419433594,Left
3404.933349609375,56223,1,1775.0,1772.0,1766.0,1785.0,1755.0,1751.0,1757.0,1753.0,-120.2384033203125,-9.31530475616455,-55.348167419433594,Left
3397.258056640625,56224,1,1773.0,1752.0,1758.0,1750.0,1755.0,1752.0,1763.0,1751.0,-120.2384033203125,-9.31530475616455,-55.348167419433594,Left
3399.258056640625,56224,1,1763.0,1755.0,1753.0,1736.0,1754.0,1754.0,1765.0,1747.0,-120.2384033203125,-9.31530475616455,-55.348167419433594,Left
3401.258056640625,56224,1,1747.0,1787.0,1755.0,1815.0,1739.0,1750.0,1763.0,1751.0,-120.2384033203125,-9.31530475616455,-55.348167419433594,Left
3403.258056640625,56224,1,1767.0,1900.0,1779.0,1895.0,1755.0,1750.0,1761.0,1765.0,-120.2384033203125,-9.31530475616455,-55.348167419433594,Left
3405.258056640625,56224,1,1749.0,1657.0,1743.0,1583.0,1755.0,1753.0,1757.0,1733.0,-120.2384033203125,-9.31530475616455,-55.348167419433594,Left
3397.645263671875,56225,1,1753.0,1683.0,1770.0,1734.0,1756.0,1751.0,1763.0,1757.0,-120.2384033203125,-9.31530475616455,-55.348167419433594,Left
3399.645263671875,56225,1,1766.0,1791.0,1753.0,1811.0,1754.0,1754.0,1755.0,1735.0,-120.27999877929688,-8.778252601623535,-54.76070022583008,Left
3401.645263671875,56225,1,1775.0,1739.0,1751.0,1737.0,1705.0,1751.0,1759.0,1747.0,-120.27999877929688,-8.778252601623535,-54.76070022583008,Left
3403.645263671875,56225,1,1745.0,1767.0,1747.0,1816.0,1183.0,1748.0,1763.0,1751.0,-120.27999877929688,-8.778252601623535,-54.76070022583008,Left
3405.645263671875,56225,1,1783.0,1817.0,1759.0,1736.0,1075.0,1753.0,1757.0,1771.0,-120.27999877929688,-8.778252601623535,-54.76070022583008,Left
3674.751220703125,56226,1,1755.0,1771.0,1750.0,1735.0,823.0,1752.0,1763.0,1739.0,-120.27999877929688,-8.778252601623535,-54.76070022583008,Left
3676.751220703125,56226,1,1769.0,1709.0,1759.0,1769.0,601.0,1753.0,1758.0,1739.0,-120.27999877929688,-8.778252601623535,-54.76070022583008,Left
3678.751220703125,56226,1,1755.0,1853.0,1771.0,1829.0,611.0,1753.0,1761.0,1757.0,-120.27999877929688,-8.778252601623535,-54.76070022583008,Left
3680.751220703125,56226,1,1747.0,1637.0,1763.0,1813.0,523.0,1752.0,1761.0,1741.0,-120.27999877929688,-8.778252601623535,-54.76070022583008,Left
3682.751220703125,56226,1,1763.0,1773.0,1768.0,1773.0,588.0,1749.0,1761.0,1761.0,-120.27999877929688,-8.778252601623535,-54.76070022583008,Left
3675.42919921875,56227,1,1766.0,1726.0,1689.0,1675.0,551.0,1753.0,1755.0,1705.0,-120.27999877929688,-8.778252601623535,-54.76070022583008,Left
3677.42919921875,56227,1,1751.0,1789.0,1748.0,1707.0,590.0,1755.0,1764.0,1748.0,-120.27999877929688,-8.778252601623535,-54.76070022583008,Left
3679.42919921875,56227,1,1767.0,1831.0,1787.0,1903.0,632.0,1751.0,1761.0,1759.0,-120.27999877929688,-8.778252601623535,-54.76070022583008,Left
3681.42919921875,56227,1,1768.0,1687.0,1749.0,1654.0,663.0,1753.0,1763.0,1739.0,-120.27999877929688,-8.778252601623535,-54.76070022583008,Left
3683.42919921875,56227,1,1770.0,1674.0,1763.0,1723.0,695.0,1755.0,1763.0,1765.0,-120.27999877929688,-8.778252601623535,-54.76070022583008,Left
3675.820068359375,56228,1,1759.0,1962.0,1777.0,1878.0,821.0,1751.0,1761.0,1749.0,-120.27999877929688,-8.778252601623535,-54.76070022583008,Left
3677.820068359375,56228,1,1746.0,1851.0,1747.0,1835.0,793.0,1747.0,1763.0,1733.0,-120.27999877929688,-8.778252601623535,-54.76070022583008,Left
3679.820068359375,56228,1,1735.0,1509.0,1735.0,1547.0,773.0,1749.0,1759.0,1747.0,-120.27999877929688,-8.778252601623535,-54.76070022583008,Left
3681.820068359375,56228,1,1765.0,1785.0,1763.0,1797.0,904.0,1752.0,1759.0,1752.0,-120.27999877929688,-8.778252601623535,-54.76070022583008,Left
3683.820068359375,56228,1,1771.0,1880.0,1755.0,1780.0,811.0,1753.0,1763.0,1771.0,-120.27999877929688,-8.778252601623535,-54.76070022583008,Left
3676.338134765625,56229,1,1773.0,1844.0,1771.0,1846.0,991.0,1753.0,1761.0,1748.0,-120.27999877929688,-8.778252601623535,-54.76070022583008,Left
3678.338134765625,56229,1,1763.0,1733.0,1769.0,1797.0,414.0,1753.0,1763.0,1759.0,-120.27999877929688,-8.778252601623535,-54.76070022583008,Left
3680.338134765625,56229,1,1759.0,1757.0,1758.0,1735.0,1129.0,1751.0,1756.0,1763.0,-120.27999877929688,-8.778252601623535,-54.76070022583008,Left
3682.338134765625,56229,1,1741.0,1733.0,1747.0,1733.0,0.0,1751.0,1762.0,1755.0,-120.27999877929688,-8.778252601623535,-54.76070022583008,Left
3684.338134765625,56229,1,1757.0,1769.0,1738.0,1758.0,0.0,1753.0,1757.0,1750.0,-120.27999877929688,-8.778252601623535,-54.76070022583008,Left
3676.710205078125,56230,1,1727.0,1816.0,1724.0,1739.0,2717.0,1752.0,1755.0,1735.0,-120.27999877929688,-8.778252601623535,-54.76070022583008,Left
3678.710205078125,56230,1,1765.0,1799.0,1766.0,1767.0,1359.0,1751.0,1761.0,1753.0,-120.27999877929688,-8.778252601623535,-54.76070022583008,Left
3680.710205078125,56230,1,1769.0,1787.0,1769.0,1799.0,2862.0,1748.0,1761.0,1751.0,-120.27999877929688,-8.778252601623535,-54.76070022583008,Left
3682.710205078125,56230,1,1751.0,1698.0,1755.0,1781.0,1999.0,1747.0,1759.0,1749.0,-120.27999877929688,-8.778252601623535,-54.76070022583008,Left
3684.710205078125,56230,1,1763.0,1754.0,1765.0,1773.0,1589.0,1752.0,1762.0,1747.0,-120.27999877929688,-8.778252601623535,-54.76070022583008,Left
3677.274169921875,56231,1,1735.0,1735.0,1755.0,1693.0,1310.0,1749.0,1762.0,1743.0,-120.27999877929688,-8.778252601623535,-54.76070022583008,Left
3679.274169921875,56231,1,1755.0,1819.0,1755.0,1785.0,979.0,1753.0,1763.0,1756.0,-120.27999877929688,-8.778252601623535,-54.76070022583008,Left
3681.274169921875,56231,1,1768.0,1643.0,1741.0,1689.0,759.0,1753.0,1759.0,1749.0,-120.27999877929688,-8.778252601623535,-54.76070022583008,Left
3683.274169921875,56231,1,1767.0,1781.0,1754.0,1754.0,695.0,1754.0,1754.0,1738.0,-121.19924926757812,-8.935705184936523,-54.43333435058594,Left
3685.274169921875,56231,1,1791.0,1911.0,1762.0,1884.0,687.0,1749.0,1759.0,1771.0,-121.19924926757812,-8.935705184936523,-54.43333435058594,Left
3677.646240234375,56232,1,1759.0,1655.0,1741.0,1655.0,1869.0,1747.0,1763.0,1728.0,-121.19924926757812,-8.935705184936523,-54.43333435058594,Left
3679.646240234375,56232,1,1753.0,1704.0,1759.0,1734.0,1215.0,1754.0,1757.0,1749.0,-121.19924926757812,-8.935705184936523,-54.43333435058594,Left
3681.646240234375,56232,1,1763.0,1767.0,1772.0,1811.0,1837.0,1753.0,1764.0,1767.0,-121.19924926757812,-8.935705184936523,-54.43333435058594,Left
3683.646240234375,56232,1,1751.0,1832.0,1769.0,1801.0,1750.0,1753.0,1763.0,1741.0,-121.19924926757812,-8.935705184936523,-54.43333435058594,Left
3685.646240234375,56232,1,1747.0,1829.0,1762.0,1791.0,1653.0,1748.0,1763.0,1743.0,-121.19924926757812,-8.935705184936523,-54.43333435058594,Left
3678.061279296875,56233,1,1768.0,1790.0,1765.0,1832.0,1597.0,1752.0,1760.0,1755.0,-121.19924926757812,-8.935705184936523,-54.43333435058594,Left
3680.061279296875,56233,1,1767.0,1870.0,1771.0,1896.0,1481.0,1753.0,1762.0,1750.0,-121.19924926757812,-8.935705184936523,-54.43333435058594,Left
3682.061279296875,56233,1,1727.0,1727.0,1747.0,1756.0,1383.0,1752.0,1763.0,1725.0,-121.19924926757812,-8.935705184936523,-54.43333435058594,Left
