Timestamp_ms,Packet_Number,Trial_ID,Ch1,Ch2,Ch3,Ch4,Ch5,Ch6,Ch7,Ch8,Ch9,Ch10,Ch11,Label
2141.838134765625,27550,1,1747.0,1750.0,1743.0,1525.0,495.0,1750.0,1885.0,1741.0,-116.40371704101562,-14.57877254486084,-47.90010452270508,down
2143.838134765625,27550,1,1749.0,1775.0,1755.0,1501.0,557.0,1751.0,1943.0,1746.0,-116.40371704101562,-14.57877254486084,-47.90010452270508,down
2145.838134765625,27550,1,1742.0,1749.0,1749.0,1553.0,583.0,1751.0,2023.0,1747.0,-116.40371704101562,-14.57877254486084,-47.90010452270508,down
2147.838134765625,27550,1,1755.0,1751.0,1753.0,1703.0,649.0,1750.0,1965.0,1740.0,-116.40371704101562,-14.57877254486084,-47.90010452270508,down
2149.838134765625,27550,1,1749.0,1759.0,1756.0,1688.0,714.0,1751.0,1981.0,1750.0,-116.40371704101562,-14.57877254486084,-47.90010452270508,down
2142.35986328125,27551,1,1754.0,1753.0,1752.0,1639.0,792.0,1750.0,1951.0,1749.0,-116.40371704101562,-14.57877254486084,-47.90010452270508,down
2144.35986328125,27551,1,1763.0,1771.0,1755.0,1627.0,857.0,1747.0,1875.0,1753.0,-116.40371704101562,-14.57877254486084,-47.90010452270508,down
2146.35986328125,27551,1,1751.0,1756.0,1756.0,1621.0,903.0,1748.0,1833.0,1743.0,-116.40371704101562,-14.57877254486084,-47.90010452270508,down
2148.35986328125,27551,1,1751.0,1757.0,1757.0,1683.0,940.0,1753.0,1781.0,1750.0,-111.1889419555664,-14.797722816467285,-47.02610397338867,down
2150.35986328125,27551,1,1753.0,1758.0,1759.0,1811.0,979.0,1751.0,1748.0,1749.0,-111.1889419555664,-14.797722816467285,-47.02610397338867,down
2142.68017578125,27552,1,1765.0,1763.0,1749.0,1797.0,1017.0,1749.0,1739.0,1751.0,-111.1889419555664,-14.797722816467285,-47.02610397338867,down
2144.68017578125,27552,1,1766.0,1763.0,1755.0,1799.0,1063.0,1751.0,1739.0,1747.0,-111.1889419555664,-14.797722816467285,-47.02610397338867,down
2146.68017578125,27552,1,1767.0,1766.0,1752.0,1727.0,1111.0,1750.0,1651.0,1749.0,-111.1889419555664,-14.797722816467285,-47.02610397338867,down
2148.68017578125,27552,1,1757.0,1769.0,1751.0,1753.0,1147.0,1747.0,1509.0,1751.0,-111.1889419555664,-14.797722816467285,-47.02610397338867,down
2150.68017578125,27552,1,1755.0,1768.0,1753.0,1727.0,1176.0,1745.0,1483.0,1749.0,-111.1889419555664,-14.797722816467285,-47.02610397338867,down
2142.983154296875,27553,1,1747.0,1735.0,1752.0,1655.0,1193.0,1751.0,1445.0,1741.0,-111.1889419555664,-14.797722816467285,-47.02610397338867,down
2144.983154296875,27553,1,1727.0,1720.0,1757.0,1691.0,1227.0,1746.0,1496.0,1749.0,-111.1889419555664,-14.797722816467285,-47.02610397338867,down
2146.983154296875,27553,1,1755.0,1763.0,1748.0,1673.0,1269.0,1749.0,1483.0,1749.0,-111.1889419555664,-14.797722816467285,-47.02610397338867,down
2148.983154296875,27553,1,1757.0,1772.0,1754.0,1734.0,1293.0,1751.0,1533.0,1753.0,-111.1889419555664,-14.797722816467285,-47.02610397338867,down
2150.983154296875,27553,1,1755.0,1757.0,1754.0,1733.0,1315.0,1751.0,1544.0,1747.0,-111.1889419555664,-14.797722816467285,-47.02610397338867,down
2143.26708984375,27554,1,1757.0,1754.0,1755.0,1655.0,1325.0,1753.0,1564.0,1748.0,-111.1889419555664,-14.797722816467285,-47.02610397338867,down
2145.26708984375,27554,1,1755.0,1773.0,1753.0,1699.0,1338.0,1751.0,1575.0,1749.0,-111.1889419555664,-14.797722816467285,-47.02610397338867,down
2147.26708984375,27554,1,1740.0,1771.0,1752.0,1745.0,1358.0,1747.0,1613.0,1753.0,-111.1889419555664,-14.797722816467285,-47.02610397338867,down
2149.26708984375,27554,1,1769.0,1765.0,1751.0,1753.0,1379.0,1750.0,1677.0,1745.0,-111.1889419555664,-14.797722816467285,-47.02610397338867,down
2151.26708984375,27554,1,1755.0,1752.0,1754.0,1727.0,1426.0,1751.0,1631.0,1758.0,-111.1889419555664,-14.797722816467285,-47.02610397338867,down
2143.571044921875,27555,1,1780.0,1727.0,1759.0,1925.0,1439.0,1752.0,1661.0,1756.0,-111.1889419555664,-14.797722816467285,-47.02610397338867,down
2145.571044921875,27555,1,1756.0,1757.0,1758.0,1817.0,1435.0,1752.0,1599.0,1749.0,-111.1889419555664,-14.797722816467285,-47.02610397338867,down
2147.571044921875,27555,1,1753.0,1762.0,1751.0,1819.0,1447.0,1751.0,1598.0,1747.0,-111.1889419555664,-14.797722816467285,-47.02610397338867,down
2149.571044921875,27555,1,1756.0,1772.0,1753.0,1818.0,1471.0,1753.0,1613.0,1747.0,-111.1889419555664,-14.797722816467285,-47.02610397338867,down
2151.571044921875,27555,1,1761.0,1774.0,1756.0,1778.0,1492.0,1750.0,1655.0,1751.0,-111.1889419555664,-14.797722816467285,-47.02610397338867,down
2143.837158203125,27556,1,1753.0,1752.0,1758.0,1831.0,1483.0,1749.0,1705.0,1737.0,-111.1889419555664,-14.797722816467285,-47.02610397338867,down
2145.837158203125,27556,1,1759.0,1763.0,1755.0,1830.0,1493.0,1748.0,1687.0,1749.0,-111.1889419555664,-14.797722816467285,-47.02610397338867,down
2147.837158203125,27556,1,1748.0,1755.0,1755.0,1817.0,1500.0,1751.0,1717.0,1746.0,-111.1889419555664,-14.797722816467285,-47.02610397338867,down
2149.837158203125,27556,1,1764.0,1755.0,1752.0,1735.0,1500.0,1751.0,1765.0,1751.0,-111.1889419555664,-14.797722816467285,-47.02610397338867,down
2151.837158203125,27556,1,1759.0,1753.0,1753.0,1763.0,1513.0,1747.0,1832.0,1749.0,-111.1889419555664,-14.797722816467285,-47.02610397338867,down
2144.088134765625,27557,1,1745.0,1747.0,1762.0,1657.0,1518.0,1751.0,1734.0,1739.0,-111.1889419555664,-14.797722816467285,-47.02610397338867,down
2146.088134765625,27557,1,1751.0,1749.0,1759.0,1663.0,1509.0,1747.0,1687.0,1751.0,-111.1889419555664,-14.797722816467285,-47.02610397338867,down
2148.088134765625,27557,1,1767.0,1753.0,1752.0,1803.0,1545.0,1753.0,1691.0,1748.0,-111.1889419555664,-14.797722816467285,-47.02610397338867,down
2150.088134765625,27557,1,1765.0,1751.0,1757.0,1782.0,1568.0,1753.0,1701.0,1750.0,-111.1889419555664,-14.797722816467285,-47.02610397338867,down
2152.088134765625,27557,1,1774.0,1755.0,1755.0,1775.0,1593.0,1747.0,1715.0,1753.0,-111.1889419555664,-14.797722816467285,-47.02610397338867,down
2144.3291015625,27558,1,1765.0,1770.0,1757.0,1736.0,1589.0,1749.0,1712.0,1753.0,-111.1889419555664,-14.797722816467285,-47.02610397338867,down
2146.3291015625,27558,1,1775.0,1799.0,1757.0,1707.0,1588.0,1753.0,1705.0,1743.0,-111.1889419555664,-14.797722816467285,-47.02610397338867,down
2148.3291015625,27558,1,1764.0,1783.0,1754.0,1707.0,1565.0,1747.0,1767.0,1736.0,-111.1889419555664,-14.797722816467285,-47.02610397338867,down
2150.3291015625,27558,1,1747.0,1765.0,1749.0,1741.0,1566.0,1747.0,1775.0,1741.0,-111.14732360839844,-14.538986206054688,-47.37213897705078,down
2152.3291015625,27558,1,1739.0,1747.0,1749.0,1849.0,1567.0,1747.0,1721.0,1747.0,-111.14732360839844,-14.538986206054688,-47.37213897705078,down
2144.570068359375,27559,1,1767.0,1758.0,1763.0,1707.0,1604.0,1743.0,1675.0,1743.0,-111.14732360839844,-14.538986206054688,-47.37213897705078,down
2146.570068359375,27559,1,1757.0,1759.0,1762.0,1805.0,1619.0,1750.0,1586.0,1743.0,-111.14732360839844,-14.538986206054688,-47.37213897705078,down
2148.570068359375,27559,1,1771.0,1755.0,1757.0,1827.0,1627.0,1752.0,1447.0,1755.0,-111.14732360839844,-14.538986206054688,-47.37213897705078,down
2150.570068359375,27559,1,1771.0,1762.0,1764.0,1781.0,1617.0,1751.0,1339.0,1757.0,-111.14732360839844,-14.538986206054688,-47.37213897705078,down
2152.570068359375,27559,1,1763.0,1757.0,1757.0,1845.0,1619.0,1753.0,1395.0,1735.0,-111.14732360839844,-14.538986206054688,-47.37213897705078,down
2144.81298828125,27560,1,1753.0,1746.0,1753.0,1885.0,1611.0,1752.0,1565.0,1752.0,-111.14732360839844,-14.538986206054688,-47.37213897705078,down
2146.81298828125,27560,1,1756.0,1735.0,1724.0,1901.0,1595.0,1750.0,1721.0,1747.0,-111.14732360839844,-14.538986206054688,-47.37213897705078,down
2148.81298828125,27560,1,1727.0,1765.0,1751.0,1874.0,1605.0,1750.0,1821.0,1741.0,-111.14732360839844,-14.538986206054688,-47.37213897705078,down
2150.81298828125,27560,1,1749.0,1768.0,1759.0,1747.0,1609.0,1753.0,1823.0,1741.0,-111.14732360839844,-14.538986206054688,-47.37213897705078,down
2152.81298828125,27560,1,1758.0,1741.0,1754.0,1715.0,1625.0,1754.0,1863.0,1735.0,-111.14732360839844,-14.538986206054688,-47.37213897705078,down
2145.056884765625,27561,1,1805.0,1784.0,1763.0,1752.0,1631.0,1741.0,1897.0,1768.0,-111.14732360839844,-14.538986206054688,-47.37213897705078,down
2147.056884765625,27561,1,1771.0,1736.0,1752.0,1809.0,1645.0,1747.0,1819.0,1736.0,-111.14732360839844,-14.538986206054688,-47.37213897705078,down
2149.056884765625,27561,1,1755.0,1764.0,1753.0,1725.0,1679.0,1740.0,1769.0,1755.0,-111.14732360839844,-14.538986206054688,-47.37213897705078,down
2151.056884765625,27561,1,1771.0,1770.0,1759.0,1812.0,1659.0,1751.0,1709.0,1746.0,-111.14732360839844,-14.538986206054688,-47.37213897705078,down
2153.056884765625,27561,1,1771.0,1763.0,1755.0,1721.0,1663.0,1747.0,1669.0,1752.0,-111.14732360839844,-14.538986206054688,-47.37213897705078,down
2145.291015625,27562,1,1753.0,1757.0,1755.0,1675.0,1647.0,1751.0,1765.0,1753.0,-111.14732360839844,-14.538986206054688,-47.37213897705078,down
2147.291015625,27562,1,1749.0,1763.0,1752.0,1673.0,1644.0,1747.0,1775.0,1743.0,-111.14732360839844,-14.538986206054688,-47.37213897705078,down
2149.291015625,27562,1,1751.0,1763.0,1756.0,1681.0,1646.0,1743.0,1771.0,1746.0,-111.14732360839844,-14.538986206054688,-47.37213897705078,down
2151.291015625,27562,1,1763.0,1748.0,1757.0,1765.0,1642.0,1751.0,1779.0,1747.0,-111.14732360839844,-14.538986206054688,-47.37213897705078,down
2153.291015625,27562,1,1741.0,1725.0,1752.0,1725.0,1644.0,1748.0,1806.0,1737.0,-111.14732360839844,-14.538986206054688,-47.37213897705078,down
2156.1640625,27563,1,1740.0,1754.0,1755.0,1715.0,1647.0,1751.0,1784.0,1737.0,-111.14732360839844,-14.538986206054688,-47.37213897705078,down
2158.1640625,27563,1,1757.0,1769.0,1752.0,1881.0,1646.0,1751.0,1683.0,1741.0,-111.14732360839844,-14.538986206054688,-47.37213897705078,down
2160.1640625,27563,1,1753.0,1755.0,1752.0,1909.0,1654.0,1748.0,1561.0,1749.0,-111.14732360839844,-14.538986206054688,-47.37213897705078,down
2162.1640625,27563,1,1757.0,1738.0,1753.0,1835.0,1661.0,1749.0,1502.0,1749.0,-111.14732360839844,-14.538986206054688,-47.37213897705078,down
2164.1640625,27563,1,1759.0,1766.0,1755.0,1783.0,1684.0,1750.0,1533.0,1752.0,-111.14732360839844,-14.538986206054688,-47.37213897705078,down
2156.501953125,27564,1,1758.0,1772.0,1755.0,1733.0,1695.0,1751.0,1510.0,1752.0,-111.14732360839844,-14.538986206054688,-47.37213897705078,down
2158.501953125,27564,1,1759.0,1773.0,1759.0,1617.0,1688.0,1751.0,1613.0,1752.0,-111.14732360839844,-14.538986206054688,-47.37213897705078,down
2160.501953125,27564,1,1771.0,1773.0,1758.0,1703.0,1683.0,1752.0,1612.0,1749.0,-111.14732360839844,-14.538986206054688,-47.37213897705078,down
2162.501953125,27564,1,1757.0,1768.0,1752.0,1655.0,1669.0,1747.0,1685.0,1743.0,-111.14732360839844,-14.538986206054688,-47.37213897705078,down
2164.501953125,27564,1,1756.0,1763.0,1757.0,1687.0,1675.0,1751.0,1587.0,1743.0,-111.14732360839844,-14.538986206054688,-47.37213897705078,down
2164.05810546875,27565,1,1748.0,1749.0,1755.0,1710.0,1657.0,1751.0,1587.0,1747.0,-111.14732360839844,-14.538986206054688,-47.37213897705078,down
2166.05810546875,27565,1,1749.0,1741.0,1757.0,1823.0,1673.0,1752.0,1547.0,1753.0,-112.09822082519531,-14.338513374328613,-47.9703483581543,down
2168.05810546875,27565,1,1755.0,1735.0,1753.0,1846.0,1672.0,1747.0,1564.0,1743.0,-112.09822082519531,-14.338513374328613,-47.9703483581543,down
2170.05810546875,27565,1,1757.0,1759.0,1758.0,1875.0,1689.0,1753.0,1515.0,1751.0,-112.09822082519531,-14.338513374328613,-47.9703483581543,down
2172.05810546875,27565,1,1758.0,1757.0,1763.0,1763.0,1688.0,1749.0,1444.0,1753.0,-112.09822082519531,-14.338513374328613,-47.9703483581543,down
2177.147216796875,27566,1,1762.0,1727.0,1753.0,1728.0,1693.0,1747.0,1420.0,1743.0,-112.09822082519531,-14.338513374328613,-47.9703483581543,down
2179.147216796875,27566,1,1743.0,1747.0,1755.0,1752.0,1681.0,1752.0,1316.0,1746.0,-112.09822082519531,-14.338513374328613,-47.9703483581543,down
2181.147216796875,27566,1,1740.0,1773.0,1750.0,1747.0,1673.0,1755.0,1279.0,1735.0,-112.09822082519531,-14.338513374328613,-47.9703483581543,down
2183.147216796875,27566,1,1747.0,1811.0,1755.0,1657.0,1677.0,1752.0,1194.0,1753.0,-112.09822082519531,-14.338513374328613,-47.9703483581543,down
2185.147216796875,27566,1,1747.0,1769.0,1750.0,1716.0,1678.0,1751.0,1113.0,1743.0,-112.09822082519531,-14.338513374328613,-47.9703483581543,down
2186.948974609375,27567,1,1772.0,1787.0,1758.0,1689.0,1735.0,1747.0,1085.0,1762.0,-112.09822082519531,-14.338513374328613,-47.9703483581543,down
2188.948974609375,27567,1,1797.0,1771.0,1759.0,1752.0,1738.0,1747.0,991.0,1767.0,-112.09822082519531,-14.338513374328613,-47.9703483581543,down
2190.948974609375,27567,1,1801.0,1754.0,1767.0,1773.0,1740.0,1752.0,797.0,1758.0,-112.09822082519531,-14.338513374328613,-47.9703483581543,down
2192.948974609375,27567,1,1768.0,1749.0,1759.0,1741.0,1709.0,1749.0,626.0,1750.0,-112.09822082519531,-14.338513374328613,-47.9703483581543,down
2194.948974609375,27567,1,1745.0,1747.0,1753.0,1751.0,1679.0,1753.0,487.0,1746.0,-112.09822082519531,-14.338513374328613,-47.9703483581543,down
2197.216064453125,27568,1,1747.0,1751.0,1755.0,1755.0,1674.0,1752.0,750.0,1737.0,-112.09822082519531,-14.338513374328613,-47.9703483581543,down
2199.216064453125,27568,1,1741.0,1756.0,1753.0,1673.0,1685.0,1751.0,914.0,1741.0,-112.09822082519531,-14.338513374328613,-47.9703483581543,down
2201.216064453125,27568,1,1748.0,1758.0,1753.0,1567.0,1689.0,1752.0,1075.0,1743.0,-112.09822082519531,-14.338513374328613,-47.9703483581543,down
2203.216064453125,27568,1,1747.0,1759.0,1751.0,1526.0,1693.0,1752.0,1163.0,1741.0,-112.09822082519531,-14.338513374328613,-47.9703483581543,down
2205.216064453125,27568,1,1763.0,1757.0,1755.0,1581.0,1695.0,1753.0,1229.0,1751.0,-112.09822082519531,-14.338513374328613,-47.9703483581543,down
2217.261962890625,27569,1,1751.0,1751.0,1756.0,1715.0,1692.0,1750.0,1338.0,1751.0,-112.09822082519531,-14.338513374328613,-47.9703483581543,down
2219.261962890625,27569,1,1745.0,1737.0,1753.0,1742.0,1692.0,1749.0,1389.0,1738.0,-112.09822082519531,-14.338513374328613,-47.9703483581543,down
2221.261962890625,27569,1,1755.0,1738.0,1763.0,1847.0,1685.0,1751.0,1465.0,1749.0,-112.09822082519531,-14.338513374328613,-47.9703483581543,down
2223.261962890625,27569,1,1751.0,1766.0,1748.0,1885.0,1711.0,1753.0,1531.0,1741.0,-112.09822082519531,-14.338513374328613,-47.9703483581543,down
2225.261962890625,27569,1,1779.0,1812.0,1765.0,1955.0,1722.0,1752.0,1575.0,1758.0,-112.09822082519531,-14.338513374328613,-47.9703483581543,down
2228.00830078125,27570,1,1779.0,1790.0,1767.0,1991.0,1736.0,1750.0,1608.0,1751.0,-112.09822082519531,-14.338513374328613,-47.9703483581543,down
2230.00830078125,27570,1,1765.0,1769.0,1763.0,1839.0,1725.0,1751.0,1519.0,1757.0,-112.09822082519531,-14.338513374328613,-47.9703483581543,down
2232.00830078125,27570,1,1757.0,1737.0,1747.0,1847.0,1707.0,1752.0,1449.0,1743.0,-112.09822082519531,-14.338513374328613,-47.9703483581543,down
2234.00830078125,27570,1,1755.0,1758.0,1753.0,1967.0,1710.0,1749.0,1452.0,1749.0,-112.09822082519531,-14.338513374328613,-47.9703483581543,down
2236.00830078125,27570,1,1747.0,1754.0,1755.0,1870.0,1701.0,1751.0,1493.0,1746.0,-112.09822082519531,-14.338513374328613,-47.9703483581543,down
2228.3662109375,27571,1,1755.0,1752.0,1753.0,1941.0,1704.0,1747.0,600.0,1743.0,-112.09822082519531,-14.338513374328613,-47.9703483581543,down
2230.3662109375,27571,1,1763.0,1751.0,1752.0,1835.0,1703.0,1745.0,759.0,1749.0,-112.09822082519531,-14.338513374328613,-47.9703483581543,down
2232.3662109375,27571,1,1756.0,1743.0,1759.0,1834.0,1702.0,1752.0,935.0,1745.0,-112.09822082519531,-14.338513374328613,-47.9703483581543,down
2234.3662109375,27571,1,1743.0,1740.0,1761.0,1743.0,1685.0,1750.0,1093.0,1751.0,-109.05286407470703,-14.015040397644043,-47.89283752441406,down
2236.3662109375,27571,1,1723.0,1717.0,1750.0,1655.0,1679.0,1747.0,1209.0,1735.0,-109.05286407470703,-14.015040397644043,-47.89283752441406,down
2243.2880859375,27572,1,1758.0,1767.0,1756.0,1735.0,1722.0,1747.0,1317.0,1771.0,-109.05286407470703,-14.015040397644043,-47.89283752441406,down
2245.2880859375,27572,1,1756.0,1801.0,1742.0,1695.0,1711.0,1752.0,1529.0,1747.0,-109.05286407470703,-14.015040397644043,-47.89283752441406,down
2247.2880859375,27572,1,1756.0,1810.0,1743.0,1711.0,1740.0,1751.0,1994.0,1748.0,-109.05286407470703,-14.015040397644043,-47.89283752441406,down
2249.2880859375,27572,1,1772.0,1749.0,1757.0,1673.0,1755.0,1751.0,2349.0,1753.0,-109.05286407470703,-14.015040397644043,-47.89283752441406,down
2251.2880859375,27572,1,1763.0,1765.0,1769.0,1661.0,1753.0,1748.0,2543.0,1752.0,-109.05286407470703,-14.015040397644043,-47.89283752441406,down
2264.032958984375,27573,1,1774.0,1765.0,1763.0,1582.0,1727.0,1752.0,2618.0,1745.0,-109.05286407470703,-14.015040397644043,-47.89283752441406,down
2266.032958984375,27573,1,1750.0,1741.0,1753.0,1589.0,1722.0,1747.0,2685.0,1748.0,-109.05286407470703,-14.015040397644043,-47.89283752441406,down
2268.032958984375,27573,1,1759.0,1748.0,1764.0,1723.0,1711.0,1752.0,2729.0,1756.0,-109.05286407470703,-14.015040397644043,-47.89283752441406,down
2270.032958984375,27573,1,1749.0,1755.0,1753.0,1751.0,1719.0,1752.0,2786.0,1743.0,-109.05286407470703,-14.015040397644043,-47.89283752441406,down
2272.032958984375,27573,1,1753.0,1769.0,1755.0,1655.0,1716.0,1752.0,2788.0,1747.0,-109.05286407470703,-14.015040397644043,-47.89283752441406,down
2270.758056640625,27574,1,1750.0,1751.0,1752.0,1625.0,1704.0,1753.0,2877.0,1741.0,-109.05286407470703,-14.015040397644043,-47.89283752441406,down
2272.758056640625,27574,1,1749.0,1755.0,1755.0,1673.0,1707.0,1750.0,2841.0,1748.0,-109.05286407470703,-14.015040397644043,-47.89283752441406,down
2274.758056640625,27574,1,1759.0,1757.0,1754.0,1693.0,1709.0,1751.0,2825.0,1747.0,-109.05286407470703,-14.015040397644043,-47.89283752441406,down
2276.758056640625,27574,1,1751.0,1763.0,1750.0,1641.0,1705.0,1747.0,2780.0,1749.0,-109.05286407470703,-14.015040397644043,-47.89283752441406,down
2278.758056640625,27574,1,1749.0,2663.0,1759.0,1703.0,1721.0,1752.0,2647.0,1747.0,-109.05286407470703,-14.015040397644043,-47.89283752441406,down
2271.1181640625,27575,1,1767.0,3833.0,1753.0,1717.0,1709.0,1751.0,2515.0,1745.0,-109.05286407470703,-14.015040397644043,-47.89283752441406,down
2273.1181640625,27575,1,1753.0,3819.0,1761.0,1771.0,1703.0,1751.0,2473.0,1750.0,-109.05286407470703,-14.015040397644043,-47.89283752441406,down
2275.1181640625,27575,1,1753.0,3829.0,1743.0,1805.0,1701.0,1753.0,2375.0,1737.0,-109.05286407470703,-14.015040397644043,-47.89283752441406,down
2277.1181640625,27575,1,1759.0,3831.0,1753.0,1880.0,1715.0,1752.0,2319.0,1749.0,-109.05286407470703,-14.015040397644043,-47.89283752441406,down
2279.1181640625,27575,1,1769.0,3819.0,1758.0,1768.0,1738.0,1752.0,2218.0,1753.0,-109.05286407470703,-14.015040397644043,-47.89283752441406,down
2295.48681640625,27576,1,1778.0,3831.0,1755.0,1813.0,1751.0,1747.0,2157.0,1753.0,-109.05286407470703,-14.015040397644043,-47.89283752441406,down
2297.48681640625,27576,1,1765.0,3848.0,1757.0,1779.0,1742.0,1747.0,2148.0,1752.0,-109.05286407470703,-14.015040397644043,-47.89283752441406,down
2299.48681640625,27576,1,1755.0,3829.0,1757.0,1723.0,1737.0,1753.0,2133.0,1748.0,-109.05286407470703,-14.015040397644043,-47.89283752441406,down
2301.48681640625,27576,1,1770.0,3830.0,1753.0,1795.0,1737.0,1751.0,2091.0,1752.0,-109.05286407470703,-14.015040397644043,-47.89283752441406,down
2303.48681640625,27576,1,1753.0,3823.0,1759.0,1792.0,1724.0,1753.0,2056.0,1751.0,-109.05286407470703,-14.015040397644043,-47.89283752441406,down
2302.424072265625,27577,1,1752.0,3854.0,1752.0,1839.0,1711.0,1751.0,2053.0,1750.0,-109.05286407470703,-14.015040397644043,-47.89283752441406,down
2304.424072265625,27577,1,1747.0,3828.0,1753.0,1871.0,1717.0,1751.0,1991.0,1749.0,-109.05286407470703,-14.015040397644043,-47.89283752441406,down
2306.424072265625,27577,1,1747.0,3832.0,1753.0,1757.0,1711.0,1751.0,1833.0,1747.0,-109.05286407470703,-14.015040397644043,-47.89283752441406,down
2308.424072265625,27577,1,1749.0,3835.0,1752.0,1737.0,1708.0,1749.0,1766.0,1749.0,-109.05286407470703,-14.015040397644043,-47.89283752441406,down
2310.424072265625,27577,1,1751.0,3321.0,1755.0,1693.0,1701.0,1753.0,1745.0,1751.0,-109.05286407470703,-14.015040397644043,-47.89283752441406,down
2303.14501953125,27578,1,1739.0,2991.0,1752.0,1627.0,1723.0,1751.0,2043.0,1739.0,-109.05286407470703,-14.015040397644043,-47.89283752441406,down
2305.14501953125,27578,1,1771.0,2780.0,1750.0,1681.0,1747.0,1751.0,2223.0,1755.0,-106.5017318725586,-13.905388832092285,-47.78535079956055,down
2307.14501953125,27578,1,1751.0,2597.0,1753.0,1705.0,1723.0,1752.0,2339.0,1746.0,-106.5017318725586,-13.905388832092285,-47.78535079956055,down
2309.14501953125,27578,1,1758.0,2443.0,1752.0,1721.0,1705.0,1748.0,2402.0,1751.0,-106.5017318725586,-13.905388832092285,-47.78535079956055,down
2311.14501953125,27578,1,1755.0,2332.0,1765.0,1824.0,1709.0,1752.0,2395.0,1749.0,-106.5017318725586,-13.905388832092285,-47.78535079956055,down
2303.51513671875,27579,1,1763.0,2223.0,1764.0,1817.0,1703.0,1746.0,2406.0,1756.0,-106.5017318725586,-13.905388832092285,-47.78535079956055,down
2305.51513671875,27579,1,1769.0,2152.0,1749.0,1768.0,1737.0,1752.0,2373.0,1753.0,-106.5017318725586,-13.905388832092285,-47.78535079956055,down
2307.51513671875,27579,1,1771.0,2079.0,1749.0,1911.0,1803.0,1751.0,2373.0,1751.0,-106.5017318725586,-13.905388832092285,-47.78535079956055,down
2309.51513671875,27579,1,1775.0,2025.0,1764.0,1976.0,1789.0,1753.0,2381.0,1748.0,-106.5017318725586,-13.905388832092285,-47.78535079956055,down
2311.51513671875,27579,1,1766.0,1989.0,1763.0,1909.0,1750.0,1752.0,2279.0,1765.0,-106.5017318725586,-13.905388832092285,-47.78535079956055,down
2334.3291015625,27580,1,1753.0,1946.0,1749.0,1893.0,1720.0,1753.0,2310.0,1740.0,-106.5017318725586,-13.905388832092285,-47.78535079956055,down
2336.3291015625,27580,1,1743.0,1917.0,1752.0,1877.0,1720.0,1752.0,2283.0,1756.0,-106.5017318725586,-13.905388832092285,-47.78535079956055,down
2338.3291015625,27580,1,1751.0,1887.0,1739.0,1809.0,1709.0,1752.0,2292.0,1725.0,-106.5017318725586,-13.905388832092285,-47.78535079956055,down
2340.3291015625,27580,1,1757.0,1876.0,1747.0,1783.0,1701.0,1750.0,2295.0,1755.0,-106.5017318725586,-13.905388832092285,-47.78535079956055,down
2342.3291015625,27580,1,1752.0,1853.0,1757.0,1783.0,1719.0,1751.0,2227.0,1749.0,-106.5017318725586,-13.905388832092285,-47.78535079956055,down
2337.9951171875,27581,1,1745.0,1839.0,1755.0,1824.0,1712.0,1749.0,2095.0,1740.0,-106.5017318725586,-13.905388832092285,-47.78535079956055,down
2339.9951171875,27581,1,1763.0,1829.0,1761.0,1800.0,1742.0,1752.0,2032.0,1745.0,-106.5017318725586,-13.905388832092285,-47.78535079956055,down
2341.9951171875,27581,1,1753.0,1821.0,1751.0,1804.0,1711.0,1749.0,1979.0,1749.0,-106.5017318725586,-13.905388832092285,-47.78535079956055,down
2343.9951171875,27581,1,1753.0,1814.0,1764.0,1725.0,1725.0,1751.0,1926.0,1748.0,-106.5017318725586,-13.905388832092285,-47.78535079956055,down
2345.9951171875,27581,1,1766.0,1809.0,1753.0,1751.0,1725.0,1749.0,1928.0,1752.0,-106.5017318725586,-13.905388832092285,-47.78535079956055,down
2338.81494140625,27582,1,1769.0,1789.0,1753.0,1725.0,1735.0,1751.0,1903.0,1745.0,-106.5017318725586,-13.905388832092285,-47.78535079956055,down
2340.81494140625,27582,1,1757.0,1799.0,1753.0,1593.0,1739.0,1752.0,1912.0,1751.0,-106.5017318725586,-13.905388832092285,-47.78535079956055,down
2342.81494140625,27582,1,1765.0,1789.0,1757.0,1673.0,1739.0,1752.0,1900.0,1753.0,-106.5017318725586,-13.905388832092285,-47.78535079956055,down
2344.81494140625,27582,1,1753.0,1786.0,1757.0,1581.0,1736.0,1753.0,1915.0,1750.0,-106.5017318725586,-13.905388832092285,-47.78535079956055,down
2346.81494140625,27582,1,1758.0,1785.0,1755.0,1542.0,1716.0,1751.0,1891.0,1751.0,-106.5017318725586,-13.905388832092285,-47.78535079956055,down
2342.777099609375,27583,1,1754.0,1783.0,1756.0,1593.0,1724.0,1750.0,1834.0,1737.0,-106.5017318725586,-13.905388832092285,-47.78535079956055,down
2344.777099609375,27583,1,1751.0,1782.0,1751.0,1709.0,1723.0,1752.0,1831.0,1747.0,-106.5017318725586,-13.905388832092285,-47.78535079956055,down
2346.777099609375,27583,1,1757.0,1771.0,1755.0,1849.0,1741.0,1753.0,1774.0,1751.0,-106.5017318725586,-13.905388832092285,-47.78535079956055,down
2348.777099609375,27583,1,1773.0,1774.0,1759.0,1866.0,1751.0,1747.0,1765.0,1763.0,-106.5017318725586,-13.905388832092285,-47.78535079956055,down
2350.777099609375,27583,1,1783.0,1773.0,1763.0,1865.0,1769.0,1751.0,1779.0,1751.0,-106.5017318725586,-13.905388832092285,-47.78535079956055,down
2359.47900390625,27584,1,1749.0,1775.0,1749.0,1797.0,1737.0,1751.0,1701.0,1751.0,-106.5017318725586,-13.905388832092285,-47.78535079956055,down
2361.47900390625,27584,1,1757.0,1771.0,1756.0,1779.0,1721.0,1752.0,1689.0,1741.0,-106.5017318725586,-13.905388832092285,-47.78535079956055,down
2363.47900390625,27584,1,1765.0,1772.0,1752.0,1782.0,1735.0,1752.0,1783.0,1747.0,-106.5017318725586,-13.905388832092285,-47.78535079956055,down
2365.47900390625,27584,1,1751.0,1751.0,1753.0,1740.0,1733.0,1751.0,1769.0,1739.0,-104.92340850830078,-13.704397201538086,-47.9970703125,down
2367.47900390625,27584,1,1752.0,1771.0,1764.0,1761.0,1737.0,1749.0,1738.0,1751.0,-104.92340850830078,-13.704397201538086,-47.9970703125,down
2366.218994140625,27585,1,1763.0,1769.0,1766.0,1705.0,1738.0,1752.0,1661.0,1760.0,-104.92340850830078,-13.704397201538086,-47.9970703125,down
2368.218994140625,27585,1,1755.0,1771.0,1758.0,1747.0,1720.0,1749.0,1635.0,1743.0,-104.92340850830078,-13.704397201538086,-47.9970703125,down
2370.218994140625,27585,1,1737.0,1769.0,1743.0,1750.0,1715.0,1749.0,1642.0,1741.0,-104.92340850830078,-13.704397201538086,-47.9970703125,down
2372.218994140625,27585,1,1757.0,1768.0,1750.0,1802.0,1738.0,1751.0,1609.0,1746.0,-104.92340850830078,-13.704397201538086,-47.9970703125,down
2374.218994140625,27585,1,1747.0,1769.0,1741.0,1847.0,1709.0,1751.0,1609.0,1749.0,-104.92340850830078,-13.704397201538086,-47.9970703125,down
2384.536865234375,27586,1,1779.0,1769.0,1745.0,1832.0,1701.0,1749.0,1593.0,1740.0,-104.92340850830078,-13.704397201538086,-47.9970703125,down
2386.536865234375,27586,1,1764.0,1765.0,1751.0,1767.0,1721.0,1753.0,1655.0,1757.0,-104.92340850830078,-13.704397201538086,-47.9970703125,down
2388.536865234375,27586,1,1765.0,1768.0,1755.0,1773.0,1747.0,1752.0,1641.0,1741.0,-104.92340850830078,-13.704397201538086,-47.9970703125,down
2390.536865234375,27586,1,1740.0,1765.0,1749.0,1755.0,1756.0,1751.0,1624.0,1734.0,-104.92340850830078,-13.704397201538086,-47.9970703125,down
2392.536865234375,27586,1,1800.0,1769.0,1774.0,1740.0,1785.0,1753.0,1625.0,1771.0,-104.92340850830078,-13.704397201538086,-47.9970703125,down
2397.881103515625,27587,1,1787.0,1768.0,1767.0,1694.0,1757.0,1753.0,1671.0,1747.0,-104.92340850830078,-13.704397201538086,-47.9970703125,down
2399.881103515625,27587,1,1785.0,1763.0,1755.0,1595.0,1735.0,1749.0,1669.0,1747.0,-104.92340850830078,-13.704397201538086,-47.9970703125,down
2401.881103515625,27587,1,1757.0,1769.0,1763.0,1587.0,1721.0,1751.0,1624.0,1768.0,-104.92340850830078,-13.704397201538086,-47.9970703125,down
2403.881103515625,27587,1,1756.0,1767.0,1727.0,1741.0,1727.0,1751.0,1627.0,1767.0,-104.92340850830078,-13.704397201538086,-47.9970703125,down
2405.881103515625,27587,1,1711.0,1767.0,1736.0,1802.0,1739.0,1752.0,1672.0,1704.0,-104.92340850830078,-13.704397201538086,-47.9970703125,down
2406.989990234375,27588,1,1717.0,1767.0,1811.0,1769.0,1751.0,1752.0,1581.0,1765.0,-104.92340850830078,-13.704397201538086,-47.9970703125,down
2408.989990234375,27588,1,1766.0,1765.0,1832.0,1640.0,1725.0,1753.0,1555.0,1727.0,-104.92340850830078,-13.704397201538086,-47.9970703125,down
2410.989990234375,27588,1,1759.0,1764.0,1717.0,1622.0,1752.0,1751.0,1629.0,1739.0,-104.92340850830078,-13.704397201538086,-47.9970703125,down
2412.989990234375,27588,1,1736.0,1764.0,1691.0,1663.0,1739.0,1753.0,1661.0,1770.0,-104.92340850830078,-13.704397201538086,-47.9970703125,down
2414.989990234375,27588,1,1805.0,1766.0,1787.0,1675.0,1705.0,1751.0,1638.0,1773.0,-104.92340850830078,-13.704397201538086,-47.9970703125,down
2443.278076171875,27589,1,1823.0,1765.0,1763.0,1751.0,1721.0,1751.0,1618.0,1717.0,-104.92340850830078,-13.704397201538086,-47.9970703125,down
2445.278076171875,27589,1,1783.0,1767.0,1705.0,1909.0,1727.0,1751.0,1579.0,1735.0,-104.92340850830078,-13.704397201538086,-47.9970703125,down
2447.278076171875,27589,1,1727.0,1767.0,1723.0,1897.0,1773.0,1751.0,1573.0,1747.0,-104.92340850830078,-13.704397201538086,-47.9970703125,down
2449.278076171875,27589,1,1759.0,1767.0,1721.0,1865.0,1749.0,1751.0,1487.0,1747.0,-104.92340850830078,-13.704397201538086,-47.9970703125,down
2451.278076171875,27589,1,1727.0,1763.0,1705.0,1839.0,1751.0,1751.0,1469.0,1721.0,-104.92340850830078,-13.704397201538086,-47.9970703125,down
2443.771240234375,27590,1,1758.0,1765.0,1791.0,1875.0,1759.0,1747.0,1511.0,1758.0,-104.92340850830078,-13.704397201538086,-47.9970703125,down
2445.771240234375,27590,1,1750.0,1766.0,1775.0,1803.0,1735.0,1751.0,1643.0,1727.0,-104.92340850830078,-13.704397201538086,-47.9970703125,down
2447.771240234375,27590,1,1723.0,1756.0,1725.0,1724.0,1717.0,1750.0,1672.0,1733.0,-104.92340850830078,-13.704397201538086,-47.9970703125,down
2449.771240234375,27590,1,1765.0,1763.0,1781.0,1607.0,1742.0,1753.0,1625.0,1723.0,-104.92340850830078,-13.704397201538086,-47.9970703125,down
2451.771240234375,27590,1,1768.0,1761.0,1775.0,1663.0,1743.0,1747.0,1639.0,1739.0,-104.92340850830078,-13.704397201538086,-47.9970703125,down
2444.1708984375,27591,1,1785.0,1766.0,1724.0,1789.0,1748.0,1752.0,1663.0,1737.0,-101.27291107177734,-13.211638450622559,-47.77243423461914,down
2446.1708984375,27591,1,1801.0,1758.0,1719.0,1903.0,1747.0,1751.0,1645.0,1770.0,-101.27291107177734,-13.211638450622559,-47.77243423461914,down
2448.1708984375,27591,1,1781.0,1763.0,1787.0,1877.0,1745.0,1753.0,1554.0,1816.0,-101.27291107177734,-13.211638450622559,-47.77243423461914,down
2450.1708984375,27591,1,1757.0,1767.0,1803.0,1803.0,1741.0,1750.0,1595.0,1775.0,-101.27291107177734,-13.211638450622559,-47.77243423461914,down
2452.1708984375,27591,1,1761.0,1757.0,1765.0,1740.0,1739.0,1751.0,1613.0,1723.0,-101.27291107177734,-13.211638450622559,-47.77243423461914,down
2444.5048828125,27592,1,1727.0,1766.0,1735.0,1801.0,1733.0,1747.0,1674.0,1715.0,-101.27291107177734,-13.211638450622559,-47.77243423461914,down
2446.5048828125,27592,1,1763.0,1764.0,1779.0,1862.0,1735.0,1750.0,1752.0,1727.0,-101.27291107177734,-13.211638450622559,-47.77243423461914,down
2448.5048828125,27592,1,1739.0,1759.0,1785.0,2003.0,1721.0,1748.0,1899.0,1720.0,-101.27291107177734,-13.211638450622559,-47.77243423461914,down
2450.5048828125,27592,1,1721.0,1756.0,1797.0,2041.0,1737.0,1749.0,2037.0,1779.0,-101.27291107177734,-13.211638450622559,-47.77243423461914,down
2452.5048828125,27592,1,1775.0,1759.0,1726.0,2029.0,1741.0,1750.0,2073.0,1765.0,-101.27291107177734,-13.211638450622559,-47.77243423461914,down
2460.38916015625,27593,1,1811.0,1764.0,1746.0,2043.0,1725.0,1751.0,2119.0,1707.0,-101.27291107177734,-13.211638450622559,-47.77243423461914,down
2462.38916015625,27593,1,1742.0,1766.0,1773.0,2146.0,1727.0,1748.0,2159.0,1708.0,-101.27291107177734,-13.211638450622559,-47.77243423461914,down
2464.38916015625,27593,1,1837.0,1767.0,1711.0,2157.0,1735.0,1751.0,2141.0,1784.0,-101.27291107177734,-13.211638450622559,-47.77243423461914,down
2466.38916015625,27593,1,1765.0,1764.0,1799.0,1911.0,1719.0,1748.0,2056.0,1735.0,-101.27291107177734,-13.211638450622559,-47.77243423461914,down
2468.38916015625,27593,1,1709.0,1757.0,1740.0,1931.0,1755.0,1747.0,2031.0,1705.0,-101.27291107177734,-13.211638450622559,-47.77243423461914,down
2461.92919921875,27594,1,1746.0,1763.0,1695.0,1875.0,1743.0,1743.0,2037.0,1694.0,-101.27291107177734,-13.211638450622559,-47.77243423461914,down
2463.92919921875,27594,1,1764.0,1765.0,1802.0,1717.0,1769.0,1752.0,2086.0,1766.0,-101.27291107177734,-13.211638450622559,-47.77243423461914,down
2465.92919921875,27594,1,1762.0,1765.0,1852.0,2387.0,1743.0,1752.0,2200.0,1843.0,-101.27291107177734,-13.211638450622559,-47.77243423461914,down
2467.92919921875,27594,1,1801.0,1765.0,1720.0,2745.0,1733.0,1747.0,2276.0,1753.0,-101.27291107177734,-13.211638450622559,-47.77243423461914,down
2469.92919921875,27594,1,1816.0,1758.0,1704.0,2335.0,1756.0,1751.0,2123.0,1693.0,-101.27291107177734,-13.211638450622559,-47.77243423461914,down
2484.9599609375,27595,1,1799.0,1757.0,1584.0,2890.0,1709.0,1751.0,2167.0,1717.0,-101.27291107177734,-13.211638450622559,-47.77243423461914,down
2486.9599609375,27595,1,1721.0,1765.0,1725.0,2747.0,1755.0,1747.0,2140.0,1683.0,-101.27291107177734,-13.211638450622559,-47.77243423461914,down
2488.9599609375,27595,1,1627.0,1763.0,1855.0,2603.0,1757.0,1747.0,2221.0,1831.0,-101.27291107177734,-13.211638450622559,-47.77243423461914,down
2490.9599609375,27595,1,1804.0,1757.0,1844.0,2412.0,1727.0,1750.0,2142.0,1716.0,-101.27291107177734,-13.211638450622559,-47.77243423461914,down
2492.9599609375,27595,1,1771.0,1763.0,1613.0,2211.0,1685.0,1751.0,2053.0,1707.0,-101.27291107177734,-13.211638450622559,-47.77243423461914,down
2495.407958984375,27596,1,1742.0,1753.0,1691.0,1972.0,1711.0,1751.0,1963.0,1693.0,-101.27291107177734,-13.211638450622559,-47.77243423461914,down
2497.407958984375,27596,1,1711.0,1764.0,1778.0,1742.0,1755.0,1745.0,1947.0,1741.0,-101.27291107177734,-13.211638450622559,-47.77243423461914,down
2499.407958984375,27596,1,1743.0,1757.0,1800.0,1594.0,1751.0,1751.0,1945.0,1757.0,-101.27291107177734,-13.211638450622559,-47.77243423461914,down
2501.407958984375,27596,1,1752.0,1763.0,1689.0,1559.0,1705.0,1741.0,1903.0,1755.0,-101.27291107177734,-13.211638450622559,-47.77243423461914,down
2503.407958984375,27596,1,1737.0,1765.0,1715.0,1420.0,1740.0,1747.0,1897.0,1753.0,-101.27291107177734,-13.211638450622559,-47.77243423461914,down
2502.87890625,27597,1,1726.0,1766.0,1758.0,1993.0,1734.0,1748.0,1807.0,1740.0,-101.27291107177734,-13.211638450622559,-47.77243423461914,down
2504.87890625,27597,1,1751.0,1765.0,1773.0,2890.0,1752.0,1752.0,1771.0,1767.0,-101.27291107177734,-13.211638450622559,-47.77243423461914,down
2506.87890625,27597,1,1769.0,1759.0,1787.0,2279.0,1753.0,1750.0,1645.0,1776.0,-101.27291107177734,-13.211638450622559,-47.77243423461914,down
2508.87890625,27597,1,1763.0,1759.0,1770.0,1907.0,1746.0,1752.0,1607.0,1739.0,-94.95782470703125,-12.661628723144531,-46.391544342041016,down
2510.87890625,27597,1,1783.0,1756.0,1767.0,1657.0,1769.0,1750.0,1587.0,1763.0,-94.95782470703125,-12.661628723144531,-46.391544342041016,down
2503.7099609375,27598,1,1780.0,1763.0,1759.0,3809.0,1759.0,1753.0,1624.0,1751.0,-94.95782470703125,-12.661628723144531,-46.391544342041016,down
2505.7099609375,27598,1,1759.0,1765.0,1754.0,3801.0,1762.0,1752.0,1660.0,1747.0,-94.95782470703125,-12.661628723144531,-46.391544342041016,down
2507.7099609375,27598,1,1764.0,1764.0,1757.0,3820.0,1754.0,1747.0,1631.0,1748.0,-94.95782470703125,-12.661628723144531,-46.391544342041016,down
2509.7099609375,27598,1,1763.0,1764.0,1755.0,2633.0,1759.0,1747.0,1645.0,1749.0,-94.95782470703125,-12.661628723144531,-46.391544342041016,down
2511.7099609375,27598,1,1767.0,0.0,1757.0,3812.0,1749.0,1754.0,1640.0,1748.0,-94.95782470703125,-12.661628723144531,-46.391544342041016,down
2535.52197265625,27599,1,1763.0,0.0,1755.0,3812.0,1743.0,1751.0,1721.0,1748.0,-94.95782470703125,-12.661628723144531,-46.391544342041016,down
2537.52197265625,27599,1,1757.0,0.0,1752.0,3815.0,1737.0,1752.0,1785.0,1741.0,-94.95782470703125,-12.661628723144531,-46.391544342041016,down
2539.52197265625,27599,1,1763.0,0.0,1752.0,3815.0,1725.0,1747.0,1823.0,1746.0,-94.95782470703125,-12.661628723144531,-46.391544342041016,down
2541.52197265625,27599,1,1757.0,0.0,1759.0,3813.0,1743.0,1747.0,1855.0,1764.0,-94.95782470703125,-12.661628723144531,-46.391544342041016,down
2543.52197265625,27599,1,1765.0,0.0,1757.0,3811.0,1727.0,1752.0,1896.0,1749.0,-94.95782470703125,-12.661628723144531,-46.391544342041016,down
2536.2890625,27600,1,1765.0,0.0,1755.0,3816.0,1745.0,1751.0,1909.0,1747.0,-94.95782470703125,-12.661628723144531,-46.391544342041016,down
2538.2890625,27600,1,1763.0,0.0,1749.0,3813.0,1747.0,1753.0,1928.0,1747.0,-94.95782470703125,-12.661628723144531,-46.391544342041016,down
2540.2890625,27600,1,1753.0,0.0,1757.0,3819.0,3799.0,1747.0,1945.0,1754.0,-94.95782470703125,-12.661628723144531,-46.391544342041016,down
2542.2890625,27600,1,1759.0,0.0,1753.0,3641.0,3788.0,1748.0,1949.0,1751.0,-94.95782470703125,-12.661628723144531,-46.391544342041016,down
2544.2890625,27600,1,1763.0,0.0,1753.0,3229.0,3800.0,1743.0,1958.0,1751.0,-94.95782470703125,-12.661628723144531,-46.391544342041016,down
2543.651123046875,27601,1,1746.0,0.0,1754.0,2908.0,3801.0,1748.0,1963.0,1753.0,-94.95782470703125,-12.661628723144531,-46.391544342041016,down
2545.651123046875,27601,1,1751.0,0.0,1752.0,2708.0,3771.0,1747.0,1972.0,1747.0,-94.95782470703125,-12.661628723144531,-46.391544342041016,down
2547.651123046875,27601,1,1749.0,0.0,1751.0,2535.0,3805.0,1737.0,2005.0,1751.0,-94.95782470703125,-12.661628723144531,-46.391544342041016,down
2549.651123046875,27601,1,1746.0,0.0,1757.0,2392.0,1765.0,1749.0,2163.0,1751.0,-94.95782470703125,-12.661628723144531,-46.391544342041016,down
2551.651123046875,27601,1,1755.0,0.0,1749.0,2283.0,157.0,1746.0,2440.0,1748.0,-94.95782470703125,-12.661628723144531,-46.391544342041016,down
2577.254150390625,27602,1,1767.0,0.0,1753.0,2184.0,453.0,1751.0,2835.0,1756.0,-94.95782470703125,-12.661628723144531,-46.391544342041016,down
2579.254150390625,27602,1,1769.0,0.0,1751.0,2109.0,2843.0,1743.0,3255.0,1751.0,-94.95782470703125,-12.661628723144531,-46.391544342041016,down
2581.254150390625,27602,1,1756.0,0.0,1757.0,2041.0,3791.0,1751.0,3833.0,1750.0,-94.95782470703125,-12.661628723144531,-46.391544342041016,down
2583.254150390625,27602,1,1755.0,0.0,1756.0,1995.0,3800.0,1747.0,3831.0,1751.0,-94.95782470703125,-12.661628723144531,-46.391544342041016,down
2585.254150390625,27602,1,1747.0,171.0,1755.0,1959.0,3796.0,1753.0,3353.0,1752.0,-94.95782470703125,-12.661628723144531,-46.391544342041016,down
2578.30712890625,27603,1,1771.0,447.0,1753.0,1917.0,3799.0,1751.0,2981.0,1747.0,-94.95782470703125,-12.661628723144531,-46.391544342041016,down
2580.30712890625,27603,1,1765.0,653.0,1752.0,1901.0,3801.0,1749.0,2747.0,1749.0,-94.95782470703125,-12.661628723144531,-46.391544342041016,down
2582.30712890625,27603,1,1767.0,827.0,1763.0,1874.0,3799.0,1749.0,2544.0,1747.0,-94.95782470703125,-12.661628723144531,-46.391544342041016,down
2584.30712890625,27603,1,1765.0,975.0,1758.0,1855.0,3800.0,1752.0,2398.0,1747.0,-94.95782470703125,-12.661628723144531,-46.391544342041016,down
2586.30712890625,27603,1,1736.0,1098.0,1757.0,1839.0,3707.0,1750.0,2268.0,1743.0,-94.95782470703125,-12.661628723144531,-46.391544342041016,down
2579.043212890625,27604,1,1757.0,1207.0,1755.0,1831.0,3205.0,1749.0,2159.0,1755.0,-94.95782470703125,-12.661628723144531,-46.391544342041016,down
2581.043212890625,27604,1,1789.0,1292.0,1751.0,1820.0,2919.0,1749.0,2093.0,1756.0,-84.45652770996094,-14.256424903869629,-46.04789733886719,down
2583.043212890625,27604,1,1759.0,1358.0,1747.0,1811.0,2693.0,1751.0,2021.0,1743.0,-84.45652770996094,-14.256424903869629,-46.04789733886719,down
2585.043212890625,27604,1,1752.0,1431.0,1762.0,1803.0,2503.0,1752.0,1959.0,1740.0,-84.45652770996094,-14.256424903869629,-46.04789733886719,down
2587.043212890625,27604,1,1762.0,1478.0,1801.0,1802.0,2366.0,1753.0,1919.0,1751.0,-84.45652770996094,-14.256424903869629,-46.04789733886719,down
2579.59130859375,27605,1,1763.0,1523.0,1757.0,1790.0,2248.0,1747.0,1884.0,1749.0,-84.45652770996094,-14.256424903869629,-46.04789733886719,down
2581.59130859375,27605,1,1759.0,1558.0,1831.0,1787.0,2159.0,1739.0,1856.0,1742.0,-84.45652770996094,-14.256424903869629,-46.04789733886719,down
2583.59130859375,27605,1,1701.0,1589.0,1747.0,1780.0,2083.0,1751.0,1832.0,1722.0,-84.45652770996094,-14.256424903869629,-46.04789733886719,down
2585.59130859375,27605,1,1739.0,1610.0,1747.0,1785.0,2024.0,1749.0,1817.0,1787.0,-84.45652770996094,-14.256424903869629,-46.04789733886719,down
2587.59130859375,27605,1,1817.0,1635.0,1769.0,1775.0,1973.0,1750.0,1805.0,1821.0,-84.45652770996094,-14.256424903869629,-46.04789733886719,down
2584.511962890625,27606,1,1735.0,1643.0,1727.0,1775.0,0.0,1751.0,1800.0,1759.0,-84.45652770996094,-14.256424903869629,-46.04789733886719,down
2586.511962890625,27606,1,1765.0,1657.0,1757.0,1778.0,0.0,1752.0,1785.0,1637.0,-84.45652770996094,-14.256424903869629,-46.04789733886719,down
2588.511962890625,27606,1,1771.0,1682.0,1577.0,1775.0,0.0,1746.0,1775.0,1685.0,-84.45652770996094,-14.256424903869629,-46.04789733886719,down
2590.511962890625,27606,1,1767.0,1679.0,1805.0,1774.0,0.0,1752.0,1768.0,1753.0,-84.45652770996094,-14.256424903869629,-46.04789733886719,down
2592.511962890625,27606,1,1715.0,1690.0,1753.0,1769.0,0.0,1751.0,1759.0,1722.0,-84.45652770996094,-14.256424903869629,-46.04789733886719,down
2585.5458984375,27607,1,1791.0,1706.0,1885.0,1771.0,0.0,1739.0,1755.0,1775.0,-84.45652770996094,-14.256424903869629,-46.04789733886719,down
2587.5458984375,27607,1,1817.0,1707.0,1611.0,1769.0,0.0,1753.0,1757.0,1759.0,-84.45652770996094,-14.256424903869629,-46.04789733886719,down
2589.5458984375,27607,1,1710.0,1711.0,1891.0,1765.0,0.0,1751.0,1751.0,1715.0,-84.45652770996094,-14.256424903869629,-46.04789733886719,down
2591.5458984375,27607,1,1757.0,1722.0,1772.0,1770.0,0.0,1751.0,1751.0,1743.0,-84.45652770996094,-14.256424903869629,-46.04789733886719,down
2593.5458984375,27607,1,1807.0,1725.0,1691.0,1769.0,0.0,1745.0,1747.0,1811.0,-84.45652770996094,-14.256424903869629,-46.04789733886719,down
2622.39208984375,27608,1,1721.0,1739.0,1819.0,1764.0,0.0,1752.0,1741.0,1707.0,-84.45652770996094,-14.256424903869629,-46.04789733886719,down
2624.39208984375,27608,1,1709.0,1735.0,1699.0,1769.0,0.0,1749.0,1747.0,1652.0,-84.45652770996094,-14.256424903869629,-46.04789733886719,down
2626.39208984375,27608,1,1807.0,1737.0,1833.0,1767.0,0.0,1752.0,1737.0,1771.0,-84.45652770996094,-14.256424903869629,-46.04789733886719,down
2628.39208984375,27608,1,1736.0,1741.0,1745.0,1767.0,506.0,1752.0,1741.0,1863.0,-84.45652770996094,-14.256424903869629,-46.04789733886719,down
2630.39208984375,27608,1,1767.0,1739.0,1877.0,1767.0,1531.0,1752.0,1741.0,1671.0,-84.45652770996094,-14.256424903869629,-46.04789733886719,down
2623.4970703125,27609,1,1786.0,1742.0,1630.0,1767.0,2309.0,1749.0,1741.0,1647.0,-84.45652770996094,-14.256424903869629,-46.04789733886719,down
2625.4970703125,27609,1,1747.0,1747.0,1982.0,1766.0,2680.0,1749.0,1741.0,1809.0,-84.45652770996094,-14.256424903869629,-46.04789733886719,down
2627.4970703125,27609,1,1443.0,1746.0,1683.0,1759.0,2823.0,1752.0,1737.0,1324.0,-84.45652770996094,-14.256424903869629,-46.04789733886719,down
2629.4970703125,27609,1,1861.0,1749.0,1705.0,1763.0,2923.0,1750.0,1741.0,1863.0,-84.45652770996094,-14.256424903869629,-46.04789733886719,down
2631.4970703125,27609,1,2125.0,1750.0,1767.0,1767.0,2885.0,1753.0,1735.0,2063.0,-84.45652770996094,-14.256424903869629,-46.04789733886719,down
2624.113037109375,27610,1,1797.0,1749.0,1711.0,1763.0,2936.0,1751.0,1743.0,1835.0,-84.45652770996094,-14.256424903869629,-46.04789733886719,down
2626.113037109375,27610,1,1740.0,1747.0,1651.0,941.0,2891.0,1752.0,1741.0,1611.0,-84.45652770996094,-14.256424903869629,-46.04789733886719,down
2628.113037109375,27610,1,1733.0,1746.0,1787.0,0.0,2799.0,1743.0,1735.0,1693.0,-84.45652770996094,-14.256424903869629,-46.04789733886719,down
2630.113037109375,27610,1,1716.0,1749.0,1788.0,0.0,2700.0,1753.0,1737.0,1662.0,-89.42862701416016,-11.929261207580566,-50.3386116027832,down
2632.113037109375,27610,1,1676.0,1752.0,1737.0,0.0,2611.0,1747.0,1740.0,1691.0,-89.42862701416016,-11.929261207580566,-50.3386116027832,down
2649.319091796875,27611,1,1677.0,1749.0,1846.0,0.0,2503.0,1753.0,1740.0,1671.0,-89.42862701416016,-11.929261207580566,-50.3386116027832,down
2651.319091796875,27611,1,1828.0,1752.0,1849.0,0.0,2450.0,1745.0,1737.0,1833.0,-89.42862701416016,-11.929261207580566,-50.3386116027832,down
2653.319091796875,27611,1,1765.0,1751.0,1864.0,0.0,2405.0,1750.0,1736.0,1791.0,-89.42862701416016,-11.929261207580566,-50.3386116027832,down
2655.319091796875,27611,1,1709.0,1750.0,1648.0,0.0,2330.0,1751.0,1737.0,1679.0,-89.42862701416016,-11.929261207580566,-50.3386116027832,down
2657.319091796875,27611,1,1711.0,1753.0,1735.0,0.0,2315.0,1749.0,1737.0,1705.0,-89.42862701416016,-11.929261207580566,-50.3386116027832,down
2650.01318359375,27612,1,1790.0,1752.0,1765.0,0.0,2235.0,1749.0,1735.0,1739.0,-89.42862701416016,-11.929261207580566,-50.3386116027832,down
2652.01318359375,27612,1,1807.0,1754.0,1677.0,0.0,2195.0,1747.0,1737.0,1747.0,-89.42862701416016,-11.929261207580566,-50.3386116027832,down
2654.01318359375,27612,1,1727.0,1755.0,1678.0,0.0,2127.0,1753.0,1738.0,1739.0,-89.42862701416016,-11.929261207580566,-50.3386116027832,down
2656.01318359375,27612,1,1822.0,1748.0,2068.0,61.0,2120.0,1752.0,1739.0,1851.0,-89.42862701416016,-11.929261207580566,-50.3386116027832,down
2658.01318359375,27612,1,1737.0,1755.0,1641.0,228.0,2063.0,1752.0,1739.0,1657.0,-89.42862701416016,-11.929261207580566,-50.3386116027832,down
2676.2060546875,27613,1,1747.0,1748.0,1627.0,423.0,2044.0,1749.0,1739.0,1669.0,-89.42862701416016,-11.929261207580566,-50.3386116027832,down
2678.2060546875,27613,1,1779.0,1753.0,1815.0,610.0,2055.0,1749.0,1738.0,1805.0,-89.42862701416016,-11.929261207580566,-50.3386116027832,down
2680.2060546875,27613,1,1753.0,1755.0,1771.0,727.0,2008.0,1751.0,1737.0,1743.0,-89.42862701416016,-11.929261207580566,-50.3386116027832,down
2682.2060546875,27613,1,1753.0,1747.0,1757.0,846.0,1973.0,1751.0,1741.0,1754.0,-89.42862701416016,-11.929261207580566,-50.3386116027832,down
2684.2060546875,27613,1,1751.0,1755.0,1805.0,959.0,1971.0,1751.0,1741.0,1726.0,-89.42862701416016,-11.929261207580566,-50.3386116027832,down
2677.092041015625,27614,1,1759.0,1756.0,1681.0,1011.0,1913.0,1751.0,1739.0,1688.0,-89.42862701416016,-11.929261207580566,-50.3386116027832,down
2679.092041015625,27614,1,1735.0,1755.0,1864.0,1147.0,1951.0,1749.0,1735.0,1719.0,-89.42862701416016,-11.929261207580566,-50.3386116027832,down
2681.092041015625,27614,1,1711.0,1755.0,1909.0,1209.0,1919.0,1753.0,1737.0,1821.0,-89.42862701416016,-11.929261207580566,-50.3386116027832,down
2683.092041015625,27614,1,1939.0,1753.0,1847.0,1178.0,1879.0,1747.0,1733.0,1811.0,-89.42862701416016,-11.929261207580566,-50.3386116027832,down
2685.092041015625,27614,1,1779.0,1758.0,1481.0,1244.0,1882.0,1751.0,1736.0,1735.0,-89.42862701416016,-11.929261207580566,-50.3386116027832,down
2677.5810546875,27615,1,1733.0,1751.0,1848.0,1386.0,1886.0,1750.0,1739.0,1865.0,-89.42862701416016,-11.929261207580566,-50.3386116027832,down
2679.5810546875,27615,1,1745.0,1755.0,1853.0,1405.0,1874.0,1753.0,1737.0,1752.0,-89.42862701416016,-11.929261207580566,-50.3386116027832,down
2681.5810546875,27615,1,1817.0,1755.0,1589.0,1439.0,1865.0,1751.0,1737.0,1635.0,-89.42862701416016,-11.929261207580566,-50.3386116027832,down
2683.5810546875,27615,1,1653.0,1754.0,1784.0,1485.0,1853.0,1751.0,1740.0,1669.0,-89.42862701416016,-11.929261207580566,-50.3386116027832,down
2685.5810546875,27615,1,1659.0,1756.0,1783.0,1507.0,1853.0,1747.0,1737.0,1643.0,-89.42862701416016,-11.929261207580566,-50.3386116027832,down
2687.900146484375,27616,1,1885.0,1757.0,1737.0,1498.0,1827.0,1751.0,1739.0,1892.0,-89.42862701416016,-11.929261207580566,-50.3386116027832,down
2689.900146484375,27616,1,1910.0,2463.0,1815.0,1542.0,1837.0,1753.0,1712.0,1777.0,-89.42862701416016,-11.929261207580566,-50.3386116027832,down
2691.900146484375,27616,1,1675.0,3177.0,1817.0,1584.0,1835.0,1749.0,1743.0,1739.0,-89.42862701416016,-11.929261207580566,-50.3386116027832,down
2693.900146484375,27616,1,1626.0,3661.0,1662.0,1529.0,1790.0,1752.0,1738.0,1599.0,-89.42862701416016,-11.929261207580566,-50.3386116027832,down
2695.900146484375,27616,1,1737.0,3831.0,1757.0,1498.0,1775.0,1751.0,1738.0,1768.0,-89.42862701416016,-11.929261207580566,-50.3386116027832,down
2690.8369140625,27617,1,1759.0,3833.0,1740.0,1691.0,1852.0,1751.0,1741.0,2086.0,-89.42862701416016,-11.929261207580566,-50.3386116027832,down
2692.8369140625,27617,1,1864.0,3831.0,1767.0,1641.0,1836.0,1751.0,1736.0,1709.0,-90.12857055664062,-9.863417625427246,-53.13233184814453,down
2694.8369140625,27617,1,1811.0,3835.0,1715.0,1645.0,1779.0,1749.0,1739.0,1686.0,-90.12857055664062,-9.863417625427246,-53.13233184814453,down
2696.8369140625,27617,1,1786.0,3835.0,1711.0,1643.0,1787.0,1752.0,1736.0,1741.0,-90.12857055664062,-9.863417625427246,-53.13233184814453,down
2698.8369140625,27617,1,1656.0,3835.0,1775.0,1643.0,1787.0,1748.0,1739.0,1707.0,-90.12857055664062,-9.863417625427246,-53.13233184814453,down
2694.125244140625,27618,1,1878.0,3835.0,1789.0,1657.0,1805.0,1745.0,1736.0,1815.0,-90.12857055664062,-9.863417625427246,-53.13233184814453,down
2696.125244140625,27618,1,1763.0,3830.0,1863.0,1643.0,1783.0,1751.0,1741.0,1699.0,-90.12857055664062,-9.863417625427246,-53.13233184814453,down
2698.125244140625,27618,1,1702.0,3420.0,1699.0,1672.0,1769.0,1741.0,1735.0,1845.0,-90.12857055664062,-9.863417625427246,-53.13233184814453,down
2700.125244140625,27618,1,1887.0,3319.0,1912.0,1695.0,1813.0,1751.0,1739.0,1861.0,-90.12857055664062,-9.863417625427246,-53.13233184814453,down
2702.125244140625,27618,1,1711.0,3259.0,1749.0,1678.0,1791.0,1752.0,1739.0,1734.0,-90.12857055664062,-9.863417625427246,-53.13233184814453,down
2710.92919921875,27619,1,1705.0,3102.0,1708.0,1684.0,1768.0,1739.0,1737.0,1723.0,-90.12857055664062,-9.863417625427246,-53.13233184814453,down
2712.92919921875,27619,1,1763.0,3003.0,1718.0,1701.0,1797.0,1751.0,1735.0,1768.0,-90.12857055664062,-9.863417625427246,-53.13233184814453,down
2714.92919921875,27619,1,1769.0,2875.0,1797.0,1692.0,1763.0,1751.0,1741.0,1711.0,-90.12857055664062,-9.863417625427246,-53.13233184814453,down
2716.92919921875,27619,1,1653.0,2787.0,1750.0,1691.0,1771.0,1747.0,1739.0,1671.0,-90.12857055664062,-9.863417625427246,-53.13233184814453,down
2718.92919921875,27619,1,1715.0,2711.0,1741.0,1687.0,1755.0,1752.0,1739.0,1684.0,-90.12857055664062,-9.863417625427246,-53.13233184814453,down
2712.89208984375,27620,1,1751.0,2619.0,1806.0,1751.0,1768.0,1749.0,1739.0,1912.0,-90.12857055664062,-9.863417625427246,-53.13233184814453,down
2714.89208984375,27620,1,1867.0,2556.0,1804.0,1695.0,1765.0,1752.0,1741.0,1771.0,-90.12857055664062,-9.863417625427246,-53.13233184814453,down
2716.89208984375,27620,1,1661.0,2505.0,1755.0,1687.0,1757.0,1751.0,1737.0,1561.0,-90.12857055664062,-9.863417625427246,-53.13233184814453,down
2718.89208984375,27620,1,1741.0,2425.0,1752.0,1711.0,1776.0,1747.0,1735.0,1826.0,-90.12857055664062,-9.863417625427246,-53.13233184814453,down
2720.89208984375,27620,1,2021.0,2444.0,1707.0,1749.0,1791.0,1752.0,1725.0,1747.0,-90.12857055664062,-9.863417625427246,-53.13233184814453,down
2748.271240234375,27621,1,1686.0,2345.0,1691.0,1702.0,1772.0,1753.0,1738.0,1764.0,-90.12857055664062,-9.863417625427246,-53.13233184814453,down
2750.271240234375,27621,1,1662.0,2373.0,1767.0,1779.0,1804.0,1751.0,1740.0,1695.0,-90.12857055664062,-9.863417625427246,-53.13233184814453,down
2752.271240234375,27621,1,1692.0,2265.0,1768.0,1688.0,1771.0,1747.0,1734.0,1745.0,-90.12857055664062,-9.863417625427246,-53.13233184814453,down
2754.271240234375,27621,1,1768.0,2246.0,1887.0,1753.0,1767.0,1747.0,1736.0,1791.0,-90.12857055664062,-9.863417625427246,-53.13233184814453,down
2756.271240234375,27621,1,1747.0,2133.0,1673.0,1629.0,1689.0,1752.0,1740.0,1661.0,-90.12857055664062,-9.863417625427246,-53.13233184814453,down
2771.5859375,27622,1,1719.0,2154.0,1770.0,1763.0,1767.0,1749.0,1741.0,1848.0,-90.12857055664062,-9.863417625427246,-53.13233184814453,down
2773.5859375,27622,1,1837.0,2153.0,1811.0,1722.0,1752.0,1751.0,1747.0,1756.0,-90.12857055664062,-9.863417625427246,-53.13233184814453,down
2775.5859375,27622,1,1759.0,2138.0,1724.0,1758.0,1781.0,1753.0,1747.0,1756.0,-90.12857055664062,-9.863417625427246,-53.13233184814453,down
2777.5859375,27622,1,1824.0,2092.0,1811.0,1703.0,1799.0,1749.0,1746.0,1781.0,-90.12857055664062,-9.863417625427246,-53.13233184814453,down
2779.5859375,27622,1,1707.0,2090.0,1766.0,1735.0,1789.0,1751.0,1743.0,1707.0,-90.12857055664062,-9.863417625427246,-53.13233184814453,down
2778.846923828125,27623,1,1718.0,2067.0,1835.0,1695.0,1779.0,1751.0,1739.0,1779.0,-90.12857055664062,-9.863417625427246,-53.13233184814453,down
2780.846923828125,27623,1,1791.0,2079.0,1753.0,1791.0,1770.0,1749.0,1738.0,1735.0,-90.12857055664062,-9.863417625427246,-53.13233184814453,down
2782.846923828125,27623,1,1683.0,2041.0,1724.0,1771.0,1769.0,1747.0,1734.0,1782.0,-89.04767608642578,-8.029668807983398,-54.72468948364258,down
2784.846923828125,27623,1,1749.0,1998.0,1812.0,1716.0,1763.0,1752.0,1735.0,1816.0,-89.04767608642578,-8.029668807983398,-54.72468948364258,down
2786.846923828125,27623,1,1816.0,1998.0,1813.0,1716.0,1759.0,1750.0,1735.0,1688.0,-89.04767608642578,-8.029668807983398,-54.72468948364258,down
2779.35498046875,27624,1,1719.0,1967.0,1645.0,1740.0,1749.0,1753.0,1739.0,1838.0,-89.04767608642578,-8.029668807983398,-54.72468948364258,down
2781.35498046875,27624,1,1783.0,1962.0,1784.0,1739.0,1749.0,1753.0,1741.0,1686.0,-89.04767608642578,-8.029668807983398,-54.72468948364258,down
2783.35498046875,27624,1,1759.0,1946.0,1695.0,1708.0,1759.0,1753.0,1738.0,1756.0,-89.04767608642578,-8.029668807983398,-54.72468948364258,down
2785.35498046875,27624,1,1647.0,1977.0,1755.0,1758.0,1763.0,1753.0,1737.0,1773.0,-89.04767608642578,-8.029668807983398,-54.72468948364258,down
2787.35498046875,27624,1,1588.0,1933.0,1765.0,1754.0,1739.0,1752.0,1743.0,1689.0,-89.04767608642578,-8.029668807983398,-54.72468948364258,down
2780.118896484375,27625,1,1847.0,1899.0,1711.0,1677.0,1746.0,1747.0,1745.0,1878.0,-89.04767608642578,-8.029668807983398,-54.72468948364258,down
2782.118896484375,27625,1,1965.0,1929.0,1890.0,1779.0,1780.0,1753.0,1745.0,1772.0,-89.04767608642578,-8.029668807983398,-54.72468948364258,down
2784.118896484375,27625,1,1789.0,1919.0,1643.0,1717.0,1747.0,1749.0,1745.0,1647.0,-89.04767608642578,-8.029668807983398,-54.72468948364258,down
2786.118896484375,27625,1,1739.0,1927.0,1757.0,1773.0,1770.0,1752.0,1740.0,1717.0,-89.04767608642578,-8.029668807983398,-54.72468948364258,down
2788.118896484375,27625,1,1691.0,1903.0,1749.0,1741.0,1759.0,1748.0,1737.0,1725.0,-89.04767608642578,-8.029668807983398,-54.72468948364258,down
2780.64501953125,27626,1,1639.0,1897.0,1767.0,1736.0,1748.0,1752.0,1736.0,1657.0,-89.04767608642578,-8.029668807983398,-54.72468948364258,down
2782.64501953125,27626,1,1715.0,1875.0,1757.0,1707.0,1741.0,1752.0,1736.0,1768.0,-89.04767608642578,-8.029668807983398,-54.72468948364258,down
2784.64501953125,27626,1,1811.0,1863.0,1764.0,1737.0,1753.0,1751.0,1741.0,1869.0,-89.04767608642578,-8.029668807983398,-54.72468948364258,down
2786.64501953125,27626,1,1807.0,1885.0,1657.0,1753.0,1775.0,1751.0,1737.0,1716.0,-89.04767608642578,-8.029668807983398,-54.72468948364258,down
2788.64501953125,27626,1,1661.0,1874.0,1887.0,1773.0,1774.0,1749.0,1741.0,1773.0,-89.04767608642578,-8.029668807983398,-54.72468948364258,down
2796.421142578125,27627,1,1700.0,1853.0,1685.0,1711.0,1719.0,1750.0,1737.0,1721.0,-89.04767608642578,-8.029668807983398,-54.72468948364258,down
2798.421142578125,27627,1,2024.0,1877.0,1741.0,1789.0,1755.0,1752.0,1739.0,1703.0,-89.04767608642578,-8.029668807983398,-54.72468948364258,down
2800.421142578125,27627,1,1637.0,1863.0,1817.0,1737.0,1759.0,1816.0,1741.0,1741.0,-89.04767608642578,-8.029668807983398,-54.72468948364258,down
2802.421142578125,27627,1,1690.0,1785.0,1575.0,1673.0,1707.0,1752.0,1745.0,1699.0,-89.04767608642578,-8.029668807983398,-54.72468948364258,down
2804.421142578125,27627,1,1883.0,1853.0,1829.0,1772.0,1769.0,1753.0,1743.0,1853.0,-89.04767608642578,-8.029668807983398,-54.72468948364258,down
2797.64306640625,27628,1,1704.0,1829.0,1747.0,1723.0,1740.0,1750.0,1745.0,1774.0,-89.04767608642578,-8.029668807983398,-54.72468948364258,down
2799.64306640625,27628,1,1765.0,1869.0,1762.0,1739.0,1771.0,1747.0,1739.0,1703.0,-89.04767608642578,-8.029668807983398,-54.72468948364258,down
2801.64306640625,27628,1,1723.0,1853.0,1746.0,1723.0,1759.0,1747.0,1737.0,1684.0,-89.04767608642578,-8.029668807983398,-54.72468948364258,down
2803.64306640625,27628,1,1745.0,1847.0,1733.0,1753.0,1751.0,1751.0,1739.0,1688.0,-89.04767608642578,-8.029668807983398,-54.72468948364258,down
2805.64306640625,27628,1,1757.0,1833.0,1801.0,1761.0,1749.0,1751.0,1740.0,1832.0,-89.04767608642578,-8.029668807983398,-54.72468948364258,down
2806.657958984375,27629,1,1599.0,1811.0,1767.0,1743.0,1741.0,1751.0,1740.0,1691.0,-89.04767608642578,-8.029668807983398,-54.72468948364258,down
2808.657958984375,27629,1,1802.0,1815.0,1788.0,1771.0,1741.0,1745.0,1741.0,1741.0,-89.04767608642578,-8.029668807983398,-54.72468948364258,down
2810.657958984375,27629,1,1943.0,1822.0,1811.0,1737.0,1752.0,1751.0,1747.0,1799.0,-89.04767608642578,-8.029668807983398,-54.72468948364258,down
2812.657958984375,27629,1,1763.0,1827.0,1711.0,1735.0,1755.0,1752.0,1739.0,1766.0,-89.04767608642578,-8.029668807983398,-54.72468948364258,down
2814.657958984375,27629,1,1735.0,1828.0,1765.0,1769.0,1757.0,1751.0,1742.0,1737.0,-89.04767608642578,-8.029668807983398,-54.72468948364258,down
2822.50439453125,27630,1,1747.0,1831.0,1769.0,1757.0,1757.0,1749.0,1746.0,1705.0,-87.62541961669922,-6.968591213226318,-54.5313720703125,down
2824.50439453125,27630,1,1776.0,1821.0,1733.0,1765.0,1749.0,1751.0,1740.0,1705.0,-87.62541961669922,-6.968591213226318,-54.5313720703125,down
2826.50439453125,27630,1,1685.0,1813.0,1801.0,1790.0,1753.0,1751.0,1742.0,1727.0,-87.62541961669922,-6.968591213226318,-54.5313720703125,down
2828.50439453125,27630,1,1773.0,1775.0,1754.0,1707.0,1716.0,1752.0,1738.0,1800.0,-87.62541961669922,-6.968591213226318,-54.5313720703125,down
2830.50439453125,27630,1,1755.0,1766.0,1740.0,1683.0,1747.0,1753.0,1745.0,1694.0,-87.62541961669922,-6.968591213226318,-54.5313720703125,down
2831.5849609375,27631,1,1695.0,1834.0,1805.0,1802.0,1784.0,1751.0,1738.0,1702.0,-87.62541961669922,-6.968591213226318,-54.5313720703125,down
2833.5849609375,27631,1,1855.0,1807.0,1819.0,1727.0,1751.0,1750.0,1741.0,1845.0,-87.62541961669922,-6.968591213226318,-54.5313720703125,down
2835.5849609375,27631,1,1903.0,1786.0,1747.0,1747.0,1752.0,1752.0,1740.0,1771.0,-87.62541961669922,-6.968591213226318,-54.5313720703125,down
2837.5849609375,27631,1,1655.0,1843.0,1801.0,1819.0,1775.0,1752.0,1741.0,1577.0,-87.62541961669922,-6.968591213226318,-54.5313720703125,down
2839.5849609375,27631,1,1761.0,1787.0,1611.0,1705.0,1755.0,1752.0,1747.0,1845.0,-87.62541961669922,-6.968591213226318,-54.5313720703125,down
2842.523193359375,27632,1,1787.0,1840.0,1757.0,1799.0,1787.0,1752.0,1741.0,1770.0,-87.62541961669922,-6.968591213226318,-54.5313720703125,down
2844.523193359375,27632,1,1693.0,1809.0,1848.0,1780.0,1759.0,1750.0,1749.0,1691.0,-87.62541961669922,-6.968591213226318,-54.5313720703125,down
2846.523193359375,27632,1,1687.0,1797.0,1637.0,1719.0,1735.0,1754.0,1742.0,1781.0,-87.62541961669922,-6.968591213226318,-54.5313720703125,down
2848.523193359375,27632,1,1737.0,1787.0,1737.0,1715.0,1739.0,1747.0,1747.0,1790.0,-87.62541961669922,-6.968591213226318,-54.5313720703125,down
2850.523193359375,27632,1,1775.0,1833.0,1865.0,1763.0,1757.0,1752.0,1743.0,1809.0,-87.62541961669922,-6.968591213226318,-54.5313720703125,down
2844.753173828125,27633,1,1591.0,1763.0,1607.0,1727.0,1691.0,1746.0,1742.0,1658.0,-87.62541961669922,-6.968591213226318,-54.5313720703125,down
2846.753173828125,27633,1,1727.0,1755.0,1769.0,1687.0,1708.0,1751.0,1745.0,1915.0,-87.62541961669922,-6.968591213226318,-54.5313720703125,down
2848.753173828125,27633,1,2197.0,1767.0,1725.0,1784.0,1787.0,1749.0,1742.0,1741.0,-87.62541961669922,-6.968591213226318,-54.5313720703125,down
2850.753173828125,27633,1,1693.0,1779.0,1747.0,1783.0,1780.0,1751.0,1743.0,1629.0,-87.62541961669922,-6.968591213226318,-54.5313720703125,down
2852.753173828125,27633,1,1671.0,1749.0,1783.0,1765.0,1739.0,1751.0,1745.0,1780.0,-87.62541961669922,-6.968591213226318,-54.5313720703125,down
2855.159912109375,27634,1,1708.0,1775.0,1705.0,1723.0,1748.0,1747.0,1741.0,1670.0,-87.62541961669922,-6.968591213226318,-54.5313720703125,down
2857.159912109375,27634,1,1723.0,1790.0,1749.0,1736.0,1750.0,1752.0,1747.0,1759.0,-87.62541961669922,-6.968591213226318,-54.5313720703125,down
2859.159912109375,27634,1,1725.0,1811.0,1779.0,1805.0,1749.0,1747.0,1745.0,1738.0,-87.62541961669922,-6.968591213226318,-54.5313720703125,down
2861.159912109375,27634,1,1751.0,1819.0,1811.0,1817.0,1751.0,1747.0,1748.0,1765.0,-87.62541961669922,-6.968591213226318,-54.5313720703125,down
2863.159912109375,27634,1,1737.0,1791.0,1702.0,1711.0,1751.0,1751.0,1747.0,1660.0,-87.62541961669922,-6.968591213226318,-54.5313720703125,down
2871.94482421875,27635,1,1807.0,1787.0,1944.0,1736.0,1751.0,1746.0,1753.0,1767.0,-87.62541961669922,-6.968591213226318,-54.5313720703125,down
2873.94482421875,27635,1,1606.0,1775.0,1515.0,1737.0,1741.0,1749.0,1747.0,1574.0,-87.62541961669922,-6.968591213226318,-54.5313720703125,down
2875.94482421875,27635,1,1823.0,1773.0,1822.0,1740.0,1739.0,1747.0,1746.0,1899.0,-87.62541961669922,-6.968591213226318,-54.5313720703125,down
2877.94482421875,27635,1,1883.0,1775.0,1763.0,1745.0,1756.0,1751.0,1743.0,1805.0,-87.62541961669922,-6.968591213226318,-54.5313720703125,down
2879.94482421875,27635,1,1754.0,1772.0,1741.0,1756.0,1753.0,1747.0,1739.0,1737.0,-87.62541961669922,-6.968591213226318,-54.5313720703125,down
2876.398193359375,27636,1,1753.0,1765.0,1751.0,1751.0,1745.0,1751.0,1743.0,1707.0,-87.62541961669922,-6.968591213226318,-54.5313720703125,down
2878.398193359375,27636,1,1719.0,1779.0,1751.0,1746.0,1755.0,1752.0,1745.0,1710.0,-87.62541961669922,-6.968591213226318,-54.5313720703125,down
2880.398193359375,27636,1,1849.0,1783.0,1769.0,1775.0,1772.0,1751.0,1741.0,1817.0,-87.62541961669922,-6.968591213226318,-54.5313720703125,down
2882.398193359375,27636,1,1749.0,1799.0,1764.0,1765.0,1755.0,1752.0,1747.0,1727.0,-88.30557250976562,-6.421519756317139,-53.79674530029297,down
2884.398193359375,27636,1,1737.0,1775.0,1750.0,1723.0,1747.0,1752.0,1747.0,1735.0,-88.30557250976562,-6.421519756317139,-53.79674530029297,down
2906.376220703125,27637,1,1769.0,1835.0,1788.0,1766.0,1758.0,1747.0,1747.0,1806.0,-88.30557250976562,-6.421519756317139,-53.79674530029297,down
2908.376220703125,27637,1,1728.0,1767.0,1708.0,1741.0,1739.0,1752.0,1747.0,1735.0,-88.30557250976562,-6.421519756317139,-53.79674530029297,down
2910.376220703125,27637,1,1829.0,1762.0,1767.0,1741.0,1747.0,1753.0,1748.0,1788.0,-88.30557250976562,-6.421519756317139,-53.79674530029297,down
2912.376220703125,27637,1,1721.0,1741.0,1628.0,1719.0,1727.0,1748.0,1747.0,1619.0,-88.30557250976562,-6.421519756317139,-53.79674530029297,down
2914.376220703125,27637,1,1759.0,1782.0,1871.0,1740.0,1757.0,1749.0,1741.0,1785.0,-88.30557250976562,-6.421519756317139,-53.79674530029297,down
2907.56201171875,27638,1,1752.0,1791.0,1743.0,1803.0,1765.0,1751.0,1745.0,1723.0,-88.30557250976562,-6.421519756317139,-53.79674530029297,down
2909.56201171875,27638,1,1758.0,1787.0,1753.0,1772.0,1767.0,1751.0,1747.0,1755.0,-88.30557250976562,-6.421519756317139,-53.79674530029297,down
2911.56201171875,27638,1,1827.0,1766.0,1749.0,1746.0,1755.0,1751.0,1742.0,1817.0,-88.30557250976562,-6.421519756317139,-53.79674530029297,down
2913.56201171875,27638,1,1769.0,1785.0,1774.0,1763.0,1750.0,1752.0,1748.0,1711.0,-88.30557250976562,-6.421519756317139,-53.79674530029297,down
2915.56201171875,27638,1,1701.0,1797.0,1783.0,1753.0,1762.0,1753.0,1747.0,1718.0,-88.30557250976562,-6.421519756317139,-53.79674530029297,down
2908.10498046875,27639,1,1735.0,1758.0,1631.0,1741.0,1724.0,1749.0,1751.0,1791.0,-88.30557250976562,-6.421519756317139,-53.79674530029297,down
2910.10498046875,27639,1,1809.0,1764.0,1911.0,1763.0,1748.0,1751.0,1747.0,1791.0,-88.30557250976562,-6.421519756317139,-53.79674530029297,down
2912.10498046875,27639,1,1737.0,1755.0,1709.0,1750.0,1725.0,1741.0,1735.0,1688.0,-88.30557250976562,-6.421519756317139,-53.79674530029297,down
2914.10498046875,27639,1,1757.0,1757.0,1740.0,1753.0,1735.0,1750.0,1751.0,1695.0,-88.30557250976562,-6.421519756317139,-53.79674530029297,down
2916.10498046875,27639,1,1797.0,1784.0,1775.0,1769.0,1773.0,1752.0,1749.0,1783.0,-88.30557250976562,-6.421519756317139,-53.79674530029297,down
2916.232177734375,27640,1,1711.0,1740.0,1738.0,1735.0,1763.0,1751.0,1747.0,1747.0,-88.30557250976562,-6.421519756317139,-53.79674530029297,down
2918.232177734375,27640,1,1791.0,1787.0,1749.0,1789.0,1783.0,1752.0,1750.0,1739.0,-88.30557250976562,-6.421519756317139,-53.79674530029297,down
2920.232177734375,27640,1,1740.0,1783.0,1835.0,1767.0,1797.0,1752.0,1739.0,1592.0,-88.30557250976562,-6.421519756317139,-53.79674530029297,down
2922.232177734375,27640,1,1749.0,1783.0,1723.0,1748.0,1756.0,1747.0,1739.0,1860.0,-88.30557250976562,-6.421519756317139,-53.79674530029297,down
2924.232177734375,27640,1,1789.0,1752.0,1785.0,1725.0,1739.0,1752.0,1743.0,1939.0,-88.30557250976562,-6.421519756317139,-53.79674530029297,down
2922.889892578125,27641,1,1705.0,1786.0,1739.0,1771.0,1712.0,1749.0,1740.0,1765.0,-88.30557250976562,-6.421519756317139,-53.79674530029297,down
2924.889892578125,27641,1,1863.0,1785.0,1779.0,1769.0,1769.0,1751.0,1747.0,1717.0,-88.30557250976562,-6.421519756317139,-53.79674530029297,down
2926.889892578125,27641,1,1693.0,1749.0,1675.0,1691.0,1725.0,1747.0,1749.0,1725.0,-88.30557250976562,-6.421519756317139,-53.79674530029297,down
2928.889892578125,27641,1,1749.0,1802.0,1779.0,1893.0,1771.0,1751.0,1749.0,1740.0,-88.30557250976562,-6.421519756317139,-53.79674530029297,down
2930.889892578125,27641,1,1721.0,1753.0,1819.0,1745.0,1739.0,1751.0,1749.0,1740.0,-88.30557250976562,-6.421519756317139,-53.79674530029297,down
2938.035888671875,27642,1,1757.0,1735.0,1657.0,1709.0,1727.0,1752.0,1750.0,1765.0,-88.30557250976562,-6.421519756317139,-53.79674530029297,down
2940.035888671875,27642,1,1734.0,1767.0,1805.0,1751.0,1739.0,1747.0,1752.0,1779.0,-88.30557250976562,-6.421519756317139,-53.79674530029297,down
2942.035888671875,27642,1,1721.0,1757.0,1824.0,1737.0,1736.0,1751.0,1749.0,1711.0,-88.30557250976562,-6.421519756317139,-53.79674530029297,down
2944.035888671875,27642,1,1814.0,1770.0,1613.0,1741.0,1751.0,1751.0,1750.0,1661.0,-88.30557250976562,-6.421519756317139,-53.79674530029297,down
2946.035888671875,27642,1,1769.0,1799.0,1844.0,1772.0,1780.0,1749.0,1748.0,1766.0,-88.30557250976562,-6.421519756317139,-53.79674530029297,down
2957.587890625,27643,1,1758.0,1773.0,1800.0,1724.0,1751.0,1751.0,1747.0,1838.0,-87.89301300048828,-6.596652030944824,-53.322444915771484,down
2959.587890625,27643,1,1855.0,1779.0,1757.0,1765.0,1752.0,1747.0,1748.0,1775.0,-87.89301300048828,-6.596652030944824,-53.322444915771484,down
2961.587890625,27643,1,1688.0,1788.0,1770.0,1807.0,1768.0,1748.0,1747.0,1647.0,-87.89301300048828,-6.596652030944824,-53.322444915771484,down
2963.587890625,27643,1,1741.0,1773.0,1785.0,1767.0,1753.0,1751.0,1749.0,1747.0,-87.89301300048828,-6.596652030944824,-53.322444915771484,down
2965.587890625,27643,1,1771.0,1720.0,1799.0,1681.0,1715.0,1752.0,1750.0,1693.0,-87.89301300048828,-6.596652030944824,-53.322444915771484,down
2962.05810546875,27644,1,1753.0,1763.0,1823.0,1757.0,1741.0,1751.0,1751.0,1653.0,-87.89301300048828,-6.596652030944824,-53.322444915771484,down
2964.05810546875,27644,1,1672.0,1757.0,1775.0,1768.0,1746.0,1751.0,1751.0,1803.0,-87.89301300048828,-6.596652030944824,-53.322444915771484,down
2966.05810546875,27644,1,1852.0,1755.0,1689.0,1723.0,1757.0,1753.0,1745.0,1937.0,-87.89301300048828,-6.596652030944824,-53.322444915771484,down
2968.05810546875,27644,1,1963.0,1791.0,1829.0,1753.0,1781.0,1747.0,1749.0,1711.0,-87.89301300048828,-6.596652030944824,-53.322444915771484,down
2970.05810546875,27644,1,1737.0,1784.0,1775.0,1779.0,1768.0,1751.0,1749.0,1773.0,-87.89301300048828,-6.596652030944824,-53.322444915771484,down
2976.365966796875,27645,1,1716.0,1775.0,1757.0,1803.0,1755.0,1751.0,1749.0,1663.0,-87.89301300048828,-6.596652030944824,-53.322444915771484,down
2978.365966796875,27645,1,1739.0,1767.0,1741.0,1752.0,1735.0,1749.0,1741.0,1670.0,-87.89301300048828,-6.596652030944824,-53.322444915771484,down
2980.365966796875,27645,1,1721.0,1759.0,1906.0,1784.0,1752.0,1753.0,1739.0,1751.0,-87.89301300048828,-6.596652030944824,-53.322444915771484,down
2982.365966796875,27645,1,1707.0,1766.0,1693.0,1771.0,1757.0,1751.0,1741.0,1704.0,-87.89301300048828,-6.596652030944824,-53.322444915771484,down
2984.365966796875,27645,1,1723.0,1772.0,1735.0,1743.0,1774.0,1747.0,1743.0,1791.0,-87.89301300048828,-6.596652030944824,-53.322444915771484,down
2977.14404296875,27646,1,1847.0,1765.0,1899.0,1751.0,1753.0,1743.0,1747.0,1813.0,-87.89301300048828,-6.596652030944824,-53.322444915771484,down
2979.14404296875,27646,1,1670.0,1746.0,1595.0,1710.0,1741.0,1749.0,1749.0,1545.0,-87.89301300048828,-6.596652030944824,-53.322444915771484,down
2981.14404296875,27646,1,1684.0,1791.0,1828.0,1767.0,1752.0,1753.0,1743.0,1706.0,-87.89301300048828,-6.596652030944824,-53.322444915771484,down
2983.14404296875,27646,1,1932.0,1797.0,1726.0,1778.0,1755.0,1751.0,1743.0,1789.0,-87.89301300048828,-6.596652030944824,-53.322444915771484,down
2985.14404296875,27646,1,1751.0,1765.0,1783.0,1726.0,1754.0,1751.0,1749.0,1738.0,-87.89301300048828,-6.596652030944824,-53.322444915771484,down
3008.887939453125,27647,1,1707.0,1770.0,1647.0,1738.0,1720.0,1752.0,1745.0,1651.0,-87.89301300048828,-6.596652030944824,-53.322444915771484,down
3010.887939453125,27647,1,1819.0,1785.0,1907.0,1772.0,1761.0,1751.0,1752.0,1847.0,-87.89301300048828,-6.596652030944824,-53.322444915771484,down
3012.887939453125,27647,1,1752.0,1719.0,1653.0,1671.0,1707.0,1751.0,1752.0,1772.0,-87.89301300048828,-6.596652030944824,-53.322444915771484,down
3014.887939453125,27647,1,1813.0,1785.0,1741.0,1809.0,1773.0,1747.0,1747.0,1735.0,-87.89301300048828,-6.596652030944824,-53.322444915771484,down
3016.887939453125,27647,1,1677.0,1767.0,1753.0,1811.0,1752.0,1751.0,1749.0,1651.0,-87.89301300048828,-6.596652030944824,-53.322444915771484,down
3009.907958984375,27648,1,1707.0,1749.0,1681.0,1738.0,1748.0,1752.0,1749.0,1673.0,-87.89301300048828,-6.596652030944824,-53.322444915771484,down
3011.907958984375,27648,1,1855.0,1771.0,1757.0,1779.0,1753.0,1747.0,1747.0,1787.0,-87.89301300048828,-6.596652030944824,-53.322444915771484,down
3013.907958984375,27648,1,1757.0,1773.0,1724.0,1749.0,1747.0,1750.0,1743.0,1727.0,-87.89301300048828,-6.596652030944824,-53.322444915771484,down
3015.907958984375,27648,1,1736.0,1771.0,1735.0,1739.0,1749.0,1751.0,1753.0,1715.0,-87.89301300048828,-6.596652030944824,-53.322444915771484,down
3017.907958984375,27648,1,1712.0,1771.0,1701.0,1754.0,1739.0,1749.0,1747.0,1723.0,-87.89301300048828,-6.596652030944824,-53.322444915771484,down
3010.2900390625,27649,1,1709.0,1759.0,1887.0,1747.0,1743.0,1747.0,1751.0,1739.0,-87.89301300048828,-6.596652030944824,-53.322444915771484,down
3012.2900390625,27649,1,1838.0,1768.0,1839.0,1749.0,1752.0,1752.0,1751.0,1845.0,-87.89301300048828,-6.596652030944824,-53.322444915771484,down
3014.2900390625,27649,1,1774.0,1741.0,1675.0,1739.0,1737.0,1749.0,1749.0,1719.0,-88.22679901123047,-6.548002243041992,-53.337894439697266,down
3016.2900390625,27649,1,1714.0,1768.0,1702.0,1762.0,1751.0,1751.0,1745.0,1671.0,-88.22679901123047,-6.548002243041992,-53.337894439697266,down
3018.2900390625,27649,1,1763.0,1753.0,1806.0,1749.0,1752.0,1751.0,1749.0,1749.0,-88.22679901123047,-6.548002243041992,-53.337894439697266,down
3013.89013671875,27650,1,1767.0,1755.0,1711.0,1768.0,1757.0,1751.0,1749.0,1737.0,-88.22679901123047,-6.548002243041992,-53.337894439697266,down
3015.89013671875,27650,1,1685.0,1767.0,1719.0,1769.0,1750.0,1751.0,1749.0,1711.0,-88.22679901123047,-6.548002243041992,-53.337894439697266,down
3017.89013671875,27650,1,1773.0,1749.0,1759.0,1703.0,1736.0,1750.0,1745.0,1799.0,-88.22679901123047,-6.548002243041992,-53.337894439697266,down
3019.89013671875,27650,1,1779.0,1782.0,1799.0,1782.0,1775.0,1751.0,1743.0,1747.0,-88.22679901123047,-6.548002243041992,-53.337894439697266,down
3021.89013671875,27650,1,1753.0,1752.0,1739.0,1741.0,1753.0,1747.0,1740.0,1759.0,-88.22679901123047,-6.548002243041992,-53.337894439697266,down
3029.10986328125,27651,1,1763.0,1781.0,1705.0,1770.0,1767.0,1739.0,1746.0,1703.0,-88.22679901123047,-6.548002243041992,-53.337894439697266,down
3031.10986328125,27651,1,1717.0,1775.0,1733.0,1750.0,1749.0,1751.0,1749.0,1721.0,-88.22679901123047,-6.548002243041992,-53.337894439697266,down
3033.10986328125,27651,1,1819.0,1769.0,1817.0,1772.0,1767.0,1751.0,1749.0,1811.0,-88.22679901123047,-6.548002243041992,-53.337894439697266,down
3035.10986328125,27651,1,1727.0,1743.0,1651.0,1745.0,1741.0,1751.0,1751.0,1663.0,-88.22679901123047,-6.548002243041992,-53.337894439697266,down
3037.10986328125,27651,1,1769.0,1757.0,1835.0,1765.0,1750.0,1751.0,1751.0,1869.0,-88.22679901123047,-6.548002243041992,-53.337894439697266,down
3046.672119140625,27652,1,1815.0,1710.0,1819.0,1723.0,1735.0,1751.0,1748.0,1775.0,-88.22679901123047,-6.548002243041992,-53.337894439697266,down
3048.672119140625,27652,1,1727.0,1759.0,1581.0,1740.0,1765.0,1752.0,1751.0,1711.0,-88.22679901123047,-6.548002243041992,-53.337894439697266,down
3050.672119140625,27652,1,1753.0,1791.0,1737.0,1787.0,1771.0,1752.0,1749.0,1704.0,-88.22679901123047,-6.548002243041992,-53.337894439697266,down
3052.672119140625,27652,1,1747.0,1768.0,1739.0,1736.0,1753.0,1752.0,1747.0,1721.0,-88.22679901123047,-6.548002243041992,-53.337894439697266,down
3054.672119140625,27652,1,1751.0,1775.0,1759.0,1763.0,1749.0,1752.0,1742.0,1743.0,-88.22679901123047,-6.548002243041992,-53.337894439697266,down
3048.96533203125,27653,1,1739.0,1747.0,1751.0,1749.0,1747.0,1743.0,1747.0,1739.0,-88.22679901123047,-6.548002243041992,-53.337894439697266,down
3050.96533203125,27653,1,1775.0,1759.0,1770.0,1763.0,1745.0,1748.0,1751.0,1765.0,-88.22679901123047,-6.548002243041992,-53.337894439697266,down
3052.96533203125,27653,1,1695.0,1752.0,1767.0,1751.0,1739.0,1749.0,1749.0,1721.0,-88.22679901123047,-6.548002243041992,-53.337894439697266,down
3054.96533203125,27653,1,1691.0,1755.0,1742.0,1757.0,1736.0,1752.0,1749.0,1765.0,-88.22679901123047,-6.548002243041992,-53.337894439697266,down
3056.96533203125,27653,1,1789.0,1742.0,1721.0,1741.0,1722.0,1751.0,1747.0,1883.0,-88.22679901123047,-6.548002243041992,-53.337894439697266,down
3054.643798828125,27654,1,1749.0,1767.0,1709.0,1763.0,1751.0,1747.0,1751.0,1635.0,-88.22679901123047,-6.548002243041992,-53.337894439697266,down
3056.643798828125,27654,1,1812.0,1769.0,1831.0,1771.0,1782.0,1753.0,1752.0,1779.0,-88.22679901123047,-6.548002243041992,-53.337894439697266,down
3058.643798828125,27654,1,1775.0,1764.0,1773.0,1768.0,1768.0,1751.0,1755.0,1769.0,-88.22679901123047,-6.548002243041992,-53.337894439697266,down
3060.643798828125,27654,1,1657.0,1740.0,1609.0,1703.0,1727.0,1751.0,1751.0,1723.0,-88.22679901123047,-6.548002243041992,-53.337894439697266,down
3062.643798828125,27654,1,1755.0,1788.0,1811.0,1800.0,1759.0,1748.0,1741.0,1739.0,-88.22679901123047,-6.548002243041992,-53.337894439697266,down
3072.40380859375,27655,1,1787.0,1791.0,1779.0,1779.0,1757.0,1751.0,1740.0,1797.0,-88.22679901123047,-6.548002243041992,-53.337894439697266,down
3074.40380859375,27655,1,1652.0,1742.0,1723.0,1722.0,1725.0,1751.0,1751.0,1685.0,-88.22679901123047,-6.548002243041992,-53.337894439697266,down
3076.40380859375,27655,1,1785.0,1764.0,1727.0,1785.0,1737.0,1749.0,1751.0,1803.0,-88.22679901123047,-6.548002243041992,-53.337894439697266,down
3078.40380859375,27655,1,1829.0,1721.0,1721.0,1736.0,1726.0,1752.0,1749.0,1783.0,-88.22679901123047,-6.548002243041992,-53.337894439697266,down
3080.40380859375,27655,1,1723.0,1757.0,1735.0,1765.0,1757.0,1753.0,1752.0,1727.0,-88.22679901123047,-6.548002243041992,-53.337894439697266,down
3077.385986328125,27656,1,1803.0,1771.0,1803.0,1766.0,1771.0,1747.0,1751.0,1771.0,-88.38459777832031,-6.424020767211914,-53.493263244628906,down
3079.385986328125,27656,1,1736.0,1755.0,1710.0,1737.0,1749.0,1752.0,1747.0,1675.0,-88.38459777832031,-6.424020767211914,-53.493263244628906,down
3081.385986328125,27656,1,1769.0,1770.0,1751.0,1759.0,1751.0,1752.0,1743.0,1743.0,-88.38459777832031,-6.424020767211914,-53.493263244628906,down
3083.385986328125,27656,1,1753.0,1771.0,1880.0,1754.0,1749.0,1751.0,1750.0,1741.0,-88.38459777832031,-6.424020767211914,-53.493263244628906,down
3085.385986328125,27656,1,1739.0,1780.0,1651.0,1767.0,1748.0,1748.0,1747.0,1648.0,-88.38459777832031,-6.424020767211914,-53.493263244628906,down
3086.9951171875,27657,1,1766.0,1758.0,1765.0,1735.0,1742.0,1751.0,1747.0,1787.0,-88.38459777832031,-6.424020767211914,-53.493263244628906,down
3088.9951171875,27657,1,1741.0,1759.0,1783.0,1763.0,1756.0,1747.0,1748.0,1750.0,-88.38459777832031,-6.424020767211914,-53.493263244628906,down
3090.9951171875,27657,1,1759.0,1764.0,1775.0,1750.0,1757.0,1747.0,1751.0,1761.0,-88.38459777832031,-6.424020767211914,-53.493263244628906,down
3092.9951171875,27657,1,1774.0,1749.0,1745.0,1740.0,1740.0,1751.0,1753.0,1737.0,-88.38459777832031,-6.424020767211914,-53.493263244628906,down
3094.9951171875,27657,1,1717.0,1747.0,1781.0,1753.0,1724.0,1751.0,1747.0,1726.0,-88.38459777832031,-6.424020767211914,-53.493263244628906,down
3095.229248046875,27658,1,1749.0,1773.0,1781.0,1782.0,1751.0,1751.0,1749.0,1710.0,-88.38459777832031,-6.424020767211914,-53.493263244628906,down
3097.229248046875,27658,1,1767.0,1767.0,1779.0,1773.0,1763.0,1751.0,1751.0,1811.0,-88.38459777832031,-6.424020767211914,-53.493263244628906,down
3099.229248046875,27658,1,1765.0,1752.0,1751.0,1749.0,1767.0,1753.0,1751.0,1707.0,-88.38459777832031,-6.424020767211914,-53.493263244628906,down
3101.229248046875,27658,1,1748.0,1766.0,1781.0,1748.0,1763.0,1751.0,1751.0,1756.0,-88.38459777832031,-6.424020767211914,-53.493263244628906,down
3103.229248046875,27658,1,1747.0,1771.0,1682.0,1741.0,1743.0,1749.0,1751.0,1701.0,-88.38459777832031,-6.424020767211914,-53.493263244628906,down
3102.5732421875,27659,1,1750.0,1775.0,1775.0,1767.0,1751.0,1751.0,1740.0,1722.0,-88.38459777832031,-6.424020767211914,-53.493263244628906,down
3104.5732421875,27659,1,1754.0,1757.0,1769.0,1747.0,1747.0,1751.0,1756.0,1751.0,-88.38459777832031,-6.424020767211914,-53.493263244628906,down
3106.5732421875,27659,1,1734.0,1765.0,1736.0,1773.0,1759.0,1749.0,1751.0,1718.0,-88.38459777832031,-6.424020767211914,-53.493263244628906,down
3108.5732421875,27659,1,1749.0,1765.0,1736.0,1755.0,1743.0,1753.0,1752.0,1702.0,-88.38459777832031,-6.424020767211914,-53.493263244628906,down
3110.5732421875,27659,1,1762.0,1755.0,1787.0,1746.0,1758.0,1747.0,1751.0,1761.0,-88.38459777832031,-6.424020767211914,-53.493263244628906,down
3114.467041015625,27660,1,1834.0,1750.0,1743.0,1743.0,1751.0,1751.0,1751.0,1829.0,-88.38459777832031,-6.424020767211914,-53.493263244628906,down
3116.467041015625,27660,1,1757.0,1757.0,1787.0,1749.0,1756.0,1753.0,1752.0,1785.0,-88.38459777832031,-6.424020767211914,-53.493263244628906,down
3118.467041015625,27660,1,1780.0,1753.0,1753.0,1769.0,1750.0,1747.0,1750.0,1770.0,-88.38459777832031,-6.424020767211914,-53.493263244628906,down
3120.467041015625,27660,1,1763.0,1773.0,1763.0,1751.0,1754.0,1750.0,1747.0,1720.0,-88.38459777832031,-6.424020767211914,-53.493263244628906,down
3122.467041015625,27660,1,1733.0,1769.0,1747.0,1748.0,1765.0,1750.0,1747.0,1741.0,-88.38459777832031,-6.424020767211914,-53.493263244628906,down
3172.51708984375,27661,1,1751.0,1781.0,1758.0,1767.0,1755.0,1750.0,1747.0,1742.0,-88.38459777832031,-6.424020767211914,-53.493263244628906,down
3174.51708984375,27661,1,1753.0,1765.0,1754.0,1753.0,1739.0,1749.0,1748.0,1741.0,-88.38459777832031,-6.424020767211914,-53.493263244628906,down
3176.51708984375,27661,1,1771.0,1764.0,1757.0,1763.0,1740.0,1751.0,1751.0,1741.0,-88.38459777832031,-6.424020767211914,-53.493263244628906,down
3178.51708984375,27661,1,1721.0,1753.0,1753.0,1754.0,1738.0,1747.0,1751.0,1727.0,-88.38459777832031,-6.424020767211914,-53.493263244628906,down
3180.51708984375,27661,1,1719.0,1741.0,1740.0,1750.0,1746.0,1749.0,1751.0,1710.0,-88.38459777832031,-6.424020767211914,-53.493263244628906,down
3173.6318359375,27662,1,1853.0,1768.0,1785.0,1768.0,1771.0,1751.0,1749.0,1863.0,-88.38459777832031,-6.424020767211914,-53.493263244628906,down
3175.6318359375,27662,1,1686.0,1750.0,1817.0,1740.0,1738.0,1749.0,1752.0,1611.0,-88.38459777832031,-6.424020767211914,-53.493263244628906,down
3177.6318359375,27662,1,1733.0,1755.0,1546.0,1742.0,1743.0,1747.0,1747.0,1645.0,-89.09327697753906,-6.571433067321777,-53.5654296875,down
3179.6318359375,27662,1,1805.0,1800.0,1853.0,1799.0,1775.0,1750.0,1751.0,1843.0,-89.09327697753906,-6.571433067321777,-53.5654296875,down
3181.6318359375,27662,1,1736.0,1746.0,1753.0,1723.0,1719.0,1749.0,1747.0,1763.0,-89.09327697753906,-6.571433067321777,-53.5654296875,down
3174.495849609375,27663,1,1863.0,1791.0,1816.0,1771.0,1779.0,1751.0,1741.0,1735.0,-89.09327697753906,-6.571433067321777,-53.5654296875,down
3176.495849609375,27663,1,1708.0,1757.0,1766.0,1769.0,1755.0,1749.0,1748.0,1775.0,-89.09327697753906,-6.571433067321777,-53.5654296875,down
3178.495849609375,27663,1,1800.0,1783.0,1818.0,1781.0,1743.0,1749.0,1743.0,1709.0,-89.09327697753906,-6.571433067321777,-53.5654296875,down
3180.495849609375,27663,1,1721.0,1750.0,1778.0,1753.0,1748.0,1751.0,1743.0,1765.0,-89.09327697753906,-6.571433067321777,-53.5654296875,down
3182.495849609375,27663,1,1753.0,1763.0,1769.0,1767.0,1763.0,1750.0,1749.0,1717.0,-89.09327697753906,-6.571433067321777,-53.5654296875,down
3175.22314453125,27664,1,1755.0,1752.0,1763.0,1751.0,1747.0,1749.0,1748.0,1743.0,-89.09327697753906,-6.571433067321777,-53.5654296875,down
3177.22314453125,27664,1,1755.0,1757.0,1749.0,1771.0,1751.0,1751.0,1753.0,1752.0,-89.09327697753906,-6.571433067321777,-53.5654296875,down
3179.22314453125,27664,1,1757.0,1766.0,1762.0,1769.0,1762.0,1751.0,1751.0,1748.0,-89.09327697753906,-6.571433067321777,-53.5654296875,down
3181.22314453125,27664,1,1753.0,1757.0,1765.0,1736.0,1756.0,1751.0,1749.0,1747.0,-89.09327697753906,-6.571433067321777,-53.5654296875,down
3183.22314453125,27664,1,1725.0,1757.0,1723.0,1759.0,1719.0,1753.0,1751.0,1720.0,-89.09327697753906,-6.571433067321777,-53.5654296875,down
3175.68896484375,27665,1,1775.0,1752.0,1735.0,1752.0,1717.0,1751.0,1753.0,1775.0,-89.09327697753906,-6.571433067321777,-53.5654296875,down
3177.68896484375,27665,1,1748.0,1755.0,1781.0,1689.0,1733.0,1752.0,1751.0,1759.0,-89.09327697753906,-6.571433067321777,-53.5654296875,down
3179.68896484375,27665,1,1766.0,1784.0,1769.0,1801.0,1768.0,1752.0,1749.0,1739.0,-89.09327697753906,-6.571433067321777,-53.5654296875,down
3181.68896484375,27665,1,1755.0,1762.0,1755.0,1767.0,1771.0,1751.0,1752.0,1745.0,-89.09327697753906,-6.571433067321777,-53.5654296875,down
3183.68896484375,27665,1,1747.0,1759.0,1756.0,1754.0,1763.0,1749.0,1753.0,1741.0,-89.09327697753906,-6.571433067321777,-53.5654296875,down
3179.23095703125,27666,1,1771.0,1749.0,1752.0,1758.0,1755.0,1750.0,1751.0,1780.0,-89.09327697753906,-6.571433067321777,-53.5654296875,down
3181.23095703125,27666,1,1771.0,1757.0,1763.0,1759.0,1748.0,1751.0,1753.0,1753.0,-89.09327697753906,-6.571433067321777,-53.5654296875,down
3183.23095703125,27666,1,1739.0,1755.0,1749.0,1753.0,1738.0,1751.0,1759.0,1723.0,-89.09327697753906,-6.571433067321777,-53.5654296875,down
3185.23095703125,27666,1,1743.0,1764.0,1750.0,1741.0,1743.0,1752.0,1753.0,1748.0,-89.09327697753906,-6.571433067321777,-53.5654296875,down
3187.23095703125,27666,1,1755.0,1775.0,1750.0,1754.0,1761.0,1752.0,1751.0,1741.0,-89.09327697753906,-6.571433067321777,-53.5654296875,down
3196.892333984375,27667,1,1754.0,1769.0,1749.0,1754.0,1741.0,1750.0,1751.0,1747.0,-89.09327697753906,-6.571433067321777,-53.5654296875,down
3198.892333984375,27667,1,1757.0,1767.0,1756.0,1765.0,1756.0,1746.0,1751.0,1751.0,-89.09327697753906,-6.571433067321777,-53.5654296875,down
3200.892333984375,27667,1,1703.0,1755.0,1728.0,1752.0,1743.0,1751.0,1749.0,1699.0,-89.09327697753906,-6.571433067321777,-53.5654296875,down
3202.892333984375,27667,1,1747.0,1757.0,1823.0,1756.0,1749.0,1752.0,1751.0,1865.0,-89.09327697753906,-6.571433067321777,-53.5654296875,down
3204.892333984375,27667,1,1789.0,1741.0,1711.0,1737.0,1743.0,1749.0,1741.0,1775.0,-89.09327697753906,-6.571433067321777,-53.5654296875,down
3198.633056640625,27668,1,1736.0,1751.0,1587.0,1745.0,1739.0,1749.0,1748.0,1710.0,-89.09327697753906,-6.571433067321777,-53.5654296875,down
3200.633056640625,27668,1,1710.0,1753.0,1823.0,1763.0,1769.0,1749.0,1747.0,1877.0,-89.09327697753906,-6.571433067321777,-53.5654296875,down
3202.633056640625,27668,1,1741.0,1781.0,1774.0,1749.0,1755.0,1751.0,1749.0,1670.0,-89.09327697753906,-6.571433067321777,-53.5654296875,down
3204.633056640625,27668,1,1810.0,1772.0,1791.0,1790.0,1755.0,1751.0,1751.0,1739.0,-89.09327697753906,-6.571433067321777,-53.5654296875,down
3206.633056640625,27668,1,1739.0,1758.0,1737.0,1749.0,1735.0,1753.0,1747.0,1759.0,-89.09327697753906,-6.571433067321777,-53.5654296875,down
3221.794189453125,27669,1,1813.0,1769.0,1745.0,1756.0,1757.0,1752.0,1752.0,1727.0,-89.73274993896484,-6.495595932006836,-53.8187141418457,down
3223.794189453125,27669,1,1709.0,1769.0,1771.0,1751.0,1757.0,1752.0,1739.0,1739.0,-89.73274993896484,-6.495595932006836,-53.8187141418457,down
3225.794189453125,27669,1,1787.0,1753.0,1772.0,1772.0,1727.0,1753.0,1751.0,1797.0,-89.73274993896484,-6.495595932006836,-53.8187141418457,down
3227.794189453125,27669,1,1743.0,1753.0,1785.0,1752.0,1748.0,1751.0,1751.0,1672.0,-89.73274993896484,-6.495595932006836,-53.8187141418457,down
3229.794189453125,27669,1,1693.0,1735.0,1703.0,1720.0,1740.0,1750.0,1741.0,1755.0,-89.73274993896484,-6.495595932006836,-53.8187141418457,down
3222.812255859375,27670,1,1821.0,1753.0,1658.0,1767.0,1753.0,1749.0,1748.0,1779.0,-89.73274993896484,-6.495595932006836,-53.8187141418457,down
3224.812255859375,27670,1,1783.0,1773.0,1835.0,1749.0,1769.0,1753.0,1749.0,1783.0,-89.73274993896484,-6.495595932006836,-53.8187141418457,down
3226.812255859375,27670,1,1721.0,1766.0,1735.0,1789.0,1758.0,1751.0,1753.0,1740.0,-89.73274993896484,-6.495595932006836,-53.8187141418457,down
3228.812255859375,27670,1,1751.0,1763.0,1753.0,1765.0,1749.0,1751.0,1753.0,1751.0,-89.73274993896484,-6.495595932006836,-53.8187141418457,down
3230.812255859375,27670,1,1737.0,1755.0,1747.0,1715.0,1741.0,1753.0,1751.0,1748.0,-89.73274993896484,-6.495595932006836,-53.8187141418457,down
3258.834228515625,27671,1,1751.0,1776.0,1753.0,1756.0,1749.0,1751.0,1748.0,1709.0,-89.73274993896484,-6.495595932006836,-53.8187141418457,down
3260.834228515625,27671,1,1669.0,1778.0,1782.0,1797.0,1755.0,1747.0,1748.0,1719.0,-89.73274993896484,-6.495595932006836,-53.8187141418457,down
3262.834228515625,27671,1,1861.0,1747.0,1784.0,1727.0,1721.0,1751.0,1751.0,1769.0,-89.73274993896484,-6.495595932006836,-53.8187141418457,down
3264.834228515625,27671,1,1849.0,1762.0,1926.0,1749.0,1763.0,1749.0,1752.0,1877.0,-89.73274993896484,-6.495595932006836,-53.8187141418457,down
3266.834228515625,27671,1,1643.0,1718.0,1522.0,1724.0,1715.0,1749.0,1747.0,1748.0,-89.73274993896484,-6.495595932006836,-53.8187141418457,down
3259.8310546875,27672,1,1789.0,1780.0,1783.0,1785.0,1753.0,1751.0,1751.0,1741.0,-89.73274993896484,-6.495595932006836,-53.8187141418457,down
3261.8310546875,27672,1,1739.0,1779.0,1746.0,1780.0,1753.0,1751.0,1747.0,1751.0,-89.73274993896484,-6.495595932006836,-53.8187141418457,down
3263.8310546875,27672,1,1757.0,1753.0,1753.0,1734.0,1765.0,1752.0,1750.0,1746.0,-89.73274993896484,-6.495595932006836,-53.8187141418457,down
3265.8310546875,27672,1,1759.0,1781.0,1762.0,1766.0,1781.0,1746.0,1749.0,1752.0,-89.73274993896484,-6.495595932006836,-53.8187141418457,down
3267.8310546875,27672,1,1755.0,1758.0,1755.0,1743.0,1751.0,1751.0,1747.0,1751.0,-89.73274993896484,-6.495595932006836,-53.8187141418457,down
3260.573974609375,27673,1,1763.0,1773.0,1763.0,1755.0,1752.0,1754.0,1749.0,1745.0,-89.73274993896484,-6.495595932006836,-53.8187141418457,down
3262.573974609375,27673,1,1751.0,1771.0,1755.0,1747.0,1737.0,1753.0,1753.0,1748.0,-89.73274993896484,-6.495595932006836,-53.8187141418457,down
3264.573974609375,27673,1,1750.0,1757.0,1754.0,1748.0,1740.0,1751.0,1755.0,1743.0,-89.73274993896484,-6.495595932006836,-53.8187141418457,down
3266.573974609375,27673,1,1733.0,1759.0,1755.0,1775.0,1743.0,1747.0,1752.0,1745.0,-89.73274993896484,-6.495595932006836,-53.8187141418457,down
3268.573974609375,27673,1,1741.0,1756.0,1751.0,1751.0,1743.0,1751.0,1748.0,1734.0,-89.73274993896484,-6.495595932006836,-53.8187141418457,down
3260.923095703125,27674,1,1752.0,1747.0,1749.0,1752.0,1736.0,1747.0,1751.0,1717.0,-89.73274993896484,-6.495595932006836,-53.8187141418457,down
3262.923095703125,27674,1,1709.0,1740.0,1741.0,1743.0,1719.0,1753.0,1753.0,1805.0,-89.73274993896484,-6.495595932006836,-53.8187141418457,down
3264.923095703125,27674,1,1813.0,1769.0,1775.0,1765.0,1753.0,1750.0,1751.0,1724.0,-89.73274993896484,-6.495595932006836,-53.8187141418457,down
3266.923095703125,27674,1,1827.0,1748.0,1785.0,1727.0,1753.0,1751.0,1748.0,1783.0,-89.73274993896484,-6.495595932006836,-53.8187141418457,down
3268.923095703125,27674,1,1739.0,1810.0,1701.0,1807.0,1788.0,1753.0,1747.0,1692.0,-89.73274993896484,-6.495595932006836,-53.8187141418457,down
3263.60400390625,27675,1,1739.0,1781.0,1747.0,1763.0,1771.0,1751.0,1749.0,1745.0,-89.73274993896484,-6.495595932006836,-53.8187141418457,down
3265.60400390625,27675,1,1835.0,1773.0,1789.0,1761.0,1767.0,1749.0,1747.0,1785.0,-89.73274993896484,-6.495595932006836,-53.8187141418457,down
3267.60400390625,27675,1,1699.0,1770.0,1741.0,1772.0,1751.0,1752.0,1749.0,1737.0,-89.79266357421875,-6.593353748321533,-54.03710174560547,down
3269.60400390625,27675,1,1707.0,1767.0,1749.0,1759.0,1740.0,1748.0,1748.0,1759.0,-89.79266357421875,-6.593353748321533,-54.03710174560547,down
3271.60400390625,27675,1,1766.0,1767.0,1785.0,1763.0,1752.0,1751.0,1753.0,1741.0,-89.79266357421875,-6.593353748321533,-54.03710174560547,down
3275.761962890625,27676,1,1766.0,1735.0,1753.0,1724.0,1737.0,1751.0,1753.0,1819.0,-89.79266357421875,-6.593353748321533,-54.03710174560547,down
3277.761962890625,27676,1,1718.0,1757.0,1899.0,1767.0,1742.0,1752.0,1752.0,1765.0,-89.79266357421875,-6.593353748321533,-54.03710174560547,down
3279.761962890625,27676,1,1784.0,1750.0,1672.0,1753.0,1755.0,1752.0,1755.0,1758.0,-89.79266357421875,-6.593353748321533,-54.03710174560547,down
3281.761962890625,27676,1,1758.0,1755.0,1758.0,1735.0,1741.0,1747.0,1753.0,1751.0,-89.79266357421875,-6.593353748321533,-54.03710174560547,down
3283.761962890625,27676,1,1772.0,1751.0,1791.0,1707.0,1740.0,1747.0,1753.0,1727.0,-89.79266357421875,-6.593353748321533,-54.03710174560547,down
3288.66015625,27677,1,1803.0,1783.0,1761.0,1800.0,1757.0,1751.0,1753.0,1759.0,-89.79266357421875,-6.593353748321533,-54.03710174560547,down
3290.66015625,27677,1,1725.0,1771.0,1768.0,1724.0,1742.0,1747.0,1751.0,1737.0,-89.79266357421875,-6.593353748321533,-54.03710174560547,down
3292.66015625,27677,1,1771.0,1763.0,1743.0,1743.0,1759.0,1751.0,1752.0,1754.0,-89.79266357421875,-6.593353748321533,-54.03710174560547,down
3294.66015625,27677,1,1773.0,1767.0,1727.0,1769.0,1765.0,1753.0,1754.0,1710.0,-89.79266357421875,-6.593353748321533,-54.03710174560547,down
3296.66015625,27677,1,1708.0,1759.0,1782.0,1767.0,1754.0,1751.0,1748.0,1752.0,-89.79266357421875,-6.593353748321533,-54.03710174560547,down
3308.712158203125,27678,1,1786.0,1747.0,1681.0,1741.0,1751.0,1751.0,1753.0,1779.0,-89.79266357421875,-6.593353748321533,-54.03710174560547,down
3310.712158203125,27678,1,1748.0,1749.0,1741.0,1759.0,1748.0,1743.0,1749.0,1748.0,-89.79266357421875,-6.593353748321533,-54.03710174560547,down
3312.712158203125,27678,1,1753.0,1770.0,1809.0,1771.0,1755.0,1751.0,1756.0,1801.0,-89.79266357421875,-6.593353748321533,-54.03710174560547,down
3314.712158203125,27678,1,1711.0,1737.0,1691.0,1695.0,1717.0,1749.0,1755.0,1653.0,-89.79266357421875,-6.593353748321533,-54.03710174560547,down
3316.712158203125,27678,1,1787.0,1763.0,1716.0,1741.0,1723.0,1751.0,1751.0,1755.0,-89.79266357421875,-6.593353748321533,-54.03710174560547,down
3311.68017578125,27679,1,1823.0,1796.0,1811.0,1791.0,1763.0,1746.0,1757.0,1785.0,-89.79266357421875,-6.593353748321533,-54.03710174560547,down
3313.68017578125,27679,1,1727.0,1758.0,1683.0,1747.0,1743.0,1751.0,1757.0,1663.0,-89.79266357421875,-6.593353748321533,-54.03710174560547,down
3315.68017578125,27679,1,1771.0,1753.0,1739.0,1705.0,1763.0,1747.0,1757.0,1764.0,-89.79266357421875,-6.593353748321533,-54.03710174560547,down
3317.68017578125,27679,1,1769.0,1763.0,1755.0,1768.0,1750.0,1751.0,1757.0,1734.0,-89.79266357421875,-6.593353748321533,-54.03710174560547,down
3319.68017578125,27679,1,1709.0,1719.0,1718.0,1752.0,1737.0,1751.0,1759.0,1694.0,-89.79266357421875,-6.593353748321533,-54.03710174560547,down
3319.81982421875,27680,1,1705.0,1765.0,1766.0,1765.0,1749.0,1752.0,1757.0,1747.0,-89.79266357421875,-6.593353748321533,-54.03710174560547,down
3321.81982421875,27680,1,1683.0,1756.0,1803.0,1747.0,1746.0,1748.0,1755.0,1709.0,-89.79266357421875,-6.593353748321533,-54.03710174560547,down
3323.81982421875,27680,1,1884.0,1753.0,1745.0,1767.0,1749.0,1748.0,1759.0,1799.0,-89.79266357421875,-6.593353748321533,-54.03710174560547,down
3325.81982421875,27680,1,1787.0,1755.0,1741.0,1720.0,1743.0,1750.0,1761.0,1704.0,-89.79266357421875,-6.593353748321533,-54.03710174560547,down
3327.81982421875,27680,1,1783.0,1775.0,1775.0,1780.0,1761.0,1753.0,1757.0,1767.0,-89.79266357421875,-6.593353748321533,-54.03710174560547,down
3325.564208984375,27681,1,1833.0,1763.0,1785.0,1752.0,1752.0,1752.0,1757.0,1815.0,-89.79266357421875,-6.593353748321533,-54.03710174560547,down
3327.564208984375,27681,1,1741.0,1769.0,1753.0,1743.0,1759.0,1752.0,1756.0,1735.0,-89.79266357421875,-6.593353748321533,-54.03710174560547,down
3329.564208984375,27681,1,1723.0,1782.0,1783.0,1772.0,1766.0,1748.0,1758.0,1687.0,-89.79266357421875,-6.593353748321533,-54.03710174560547,down
3331.564208984375,27681,1,1689.0,1737.0,1685.0,1727.0,1741.0,1747.0,1759.0,1783.0,-89.79266357421875,-6.593353748321533,-54.03710174560547,down
3333.564208984375,27681,1,1803.0,1759.0,1839.0,1747.0,1717.0,1750.0,1758.0,1763.0,-89.79266357421875,-6.593353748321533,-54.03710174560547,down
3346.93017578125,27682,1,1767.0,1765.0,1705.0,1787.0,1751.0,1751.0,1757.0,1752.0,-90.28861999511719,-6.6530232429504395,-54.26314926147461,down
3348.93017578125,27682,1,1743.0,1751.0,1688.0,1751.0,1747.0,1751.0,1757.0,1737.0,-90.28861999511719,-6.6530232429504395,-54.26314926147461,down
3350.93017578125,27682,1,1769.0,1763.0,1757.0,1783.0,1753.0,1749.0,1759.0,1739.0,-90.28861999511719,-6.6530232429504395,-54.26314926147461,down
3352.93017578125,27682,1,1719.0,1745.0,1753.0,1737.0,1733.0,1751.0,1757.0,1694.0,-90.28861999511719,-6.6530232429504395,-54.26314926147461,down
3354.93017578125,27682,1,1719.0,1763.0,1847.0,1749.0,1747.0,1751.0,1757.0,1791.0,-90.28861999511719,-6.6530232429504395,-54.26314926147461,down
3362.698974609375,27683,1,1767.0,1751.0,1617.0,1712.0,1726.0,1751.0,1757.0,1717.0,-90.28861999511719,-6.6530232429504395,-54.26314926147461,down
3364.698974609375,27683,1,1802.0,1781.0,1726.0,1798.0,1755.0,1751.0,1756.0,1783.0,-90.28861999511719,-6.6530232429504395,-54.26314926147461,down
3366.698974609375,27683,1,1715.0,1779.0,1753.0,1769.0,1747.0,1751.0,1757.0,1544.0,-90.28861999511719,-6.6530232429504395,-54.26314926147461,down
3368.698974609375,27683,1,1813.0,1765.0,1951.0,1773.0,1773.0,1753.0,1763.0,1811.0,-90.28861999511719,-6.6530232429504395,-54.26314926147461,down
3370.698974609375,27683,1,1727.0,1764.0,1763.0,1765.0,1742.0,1749.0,1754.0,1847.0,-90.28861999511719,-6.6530232429504395,-54.26314926147461,down
3363.424072265625,27684,1,1696.0,1756.0,1715.0,1750.0,1742.0,1749.0,1763.0,1699.0,-90.28861999511719,-6.6530232429504395,-54.26314926147461,down
3365.424072265625,27684,1,1797.0,1754.0,1771.0,1747.0,1754.0,1752.0,1761.0,1773.0,-90.28861999511719,-6.6530232429504395,-54.26314926147461,down
3367.424072265625,27684,1,1727.0,1741.0,1739.0,1739.0,1740.0,1742.0,1757.0,1752.0,-90.28861999511719,-6.6530232429504395,-54.26314926147461,down
3369.424072265625,27684,1,1734.0,1751.0,1723.0,1741.0,1746.0,1747.0,1753.0,1719.0,-90.28861999511719,-6.6530232429504395,-54.26314926147461,down
3371.424072265625,27684,1,1782.0,1780.0,1847.0,1775.0,1763.0,1751.0,1755.0,1751.0,-90.28861999511719,-6.6530232429504395,-54.26314926147461,down
3369.4482421875,27685,1,1715.0,1764.0,1679.0,1747.0,1756.0,1751.0,1763.0,1733.0,-90.28861999511719,-6.6530232429504395,-54.26314926147461,down
3371.4482421875,27685,1,1752.0,1755.0,1721.0,1735.0,1741.0,1753.0,1755.0,1805.0,-90.28861999511719,-6.6530232429504395,-54.26314926147461,down
3373.4482421875,27685,1,1823.0,1767.0,1767.0,1765.0,1751.0,1750.0,1755.0,1737.0,-90.28861999511719,-6.6530232429504395,-54.26314926147461,down
3375.4482421875,27685,1,1719.0,1757.0,1780.0,1756.0,1756.0,1749.0,1759.0,1799.0,-90.28861999511719,-6.6530232429504395,-54.26314926147461,down
3377.4482421875,27685,1,1759.0,1769.0,1767.0,1783.0,1747.0,1741.0,1757.0,1683.0,-90.28861999511719,-6.6530232429504395,-54.26314926147461,down
3373.9130859375,27686,1,1807.0,1767.0,1759.0,1768.0,1759.0,1751.0,1761.0,1728.0,-90.28861999511719,-6.6530232429504395,-54.26314926147461,down
3375.9130859375,27686,1,1735.0,1741.0,1763.0,1750.0,1743.0,1751.0,1757.0,1752.0,-90.28861999511719,-6.6530232429504395,-54.26314926147461,down
3377.9130859375,27686,1,1736.0,1771.0,1768.0,1767.0,1742.0,1747.0,1755.0,1739.0,-90.28861999511719,-6.6530232429504395,-54.26314926147461,down
3379.9130859375,27686,1,1719.0,1735.0,1764.0,1686.0,1724.0,1751.0,1757.0,1685.0,-90.28861999511719,-6.6530232429504395,-54.26314926147461,down
3381.9130859375,27686,1,1817.0,1781.0,1749.0,1787.0,1763.0,1752.0,1759.0,1804.0,-90.28861999511719,-6.6530232429504395,-54.26314926147461,down
3387.398193359375,27687,1,1711.0,1752.0,1769.0,1769.0,1739.0,1749.0,1758.0,1725.0,-90.28861999511719,-6.6530232429504395,-54.26314926147461,down
3389.398193359375,27687,1,1829.0,1753.0,1751.0,1725.0,1751.0,1747.0,1755.0,1807.0,-90.28861999511719,-6.6530232429504395,-54.26314926147461,down
3391.398193359375,27687,1,1748.0,1752.0,1722.0,1727.0,1741.0,1752.0,1753.0,1720.0,-90.28861999511719,-6.6530232429504395,-54.26314926147461,down
3393.398193359375,27687,1,1738.0,1752.0,1827.0,1819.0,1741.0,1752.0,1755.0,1702.0,-90.28861999511719,-6.6530232429504395,-54.26314926147461,down
3395.398193359375,27687,1,1743.0,1763.0,1801.0,1771.0,1748.0,1752.0,1763.0,1791.0,-90.28861999511719,-6.6530232429504395,-54.26314926147461,down
3400.3310546875,27688,1,1800.0,1740.0,1715.0,1735.0,1755.0,1747.0,1759.0,1775.0,-90.28861999511719,-6.6530232429504395,-54.26314926147461,down
3402.3310546875,27688,1,1865.0,1779.0,1803.0,1769.0,1780.0,1749.0,1761.0,1733.0,-90.28861999511719,-6.6530232429504395,-54.26314926147461,down
3404.3310546875,27688,1,1724.0,1771.0,1741.0,1765.0,1779.0,1749.0,1763.0,1725.0,-90.09701538085938,-6.746955394744873,-54.52909469604492,down
3406.3310546875,27688,1,1751.0,1771.0,1752.0,1757.0,1763.0,1753.0,1757.0,1775.0,-90.09701538085938,-6.746955394744873,-54.52909469604492,down
3408.3310546875,27688,1,1757.0,1765.0,1763.0,1743.0,1747.0,1751.0,1759.0,1671.0,-90.09701538085938,-6.746955394744873,-54.52909469604492,down
3412.350830078125,27689,1,1774.0,1780.0,1803.0,1759.0,1749.0,1751.0,1763.0,1741.0,-90.09701538085938,-6.746955394744873,-54.52909469604492,down
3414.350830078125,27689,1,1752.0,1769.0,1752.0,1755.0,1741.0,1753.0,1755.0,1693.0,-90.09701538085938,-6.746955394744873,-54.52909469604492,down
3416.350830078125,27689,1,1709.0,1771.0,1830.0,1785.0,1747.0,1747.0,1759.0,1765.0,-90.09701538085938,-6.746955394744873,-54.52909469604492,down
3418.350830078125,27689,1,1719.0,1755.0,1675.0,1728.0,1737.0,1752.0,1761.0,1811.0,-90.09701538085938,-6.746955394744873,-54.52909469604492,down
3420.350830078125,27689,1,1868.0,1725.0,1880.0,1741.0,1723.0,1739.0,1759.0,1797.0,-90.09701538085938,-6.746955394744873,-54.52909469604492,down
3431.64697265625,27690,1,1749.0,1761.0,1675.0,1767.0,1759.0,1753.0,1757.0,1740.0,-90.09701538085938,-6.746955394744873,-54.52909469604492,down
3433.64697265625,27690,1,1823.0,1763.0,1759.0,1756.0,1753.0,1747.0,1757.0,1720.0,-90.09701538085938,-6.746955394744873,-54.52909469604492,down
3435.64697265625,27690,1,1784.0,1769.0,1781.0,1784.0,1763.0,1743.0,1727.0,1735.0,-90.09701538085938,-6.746955394744873,-54.52909469604492,down
3437.64697265625,27690,1,1710.0,1759.0,1755.0,1751.0,1755.0,1751.0,1758.0,1735.0,-90.09701538085938,-6.746955394744873,-54.52909469604492,down
3439.64697265625,27690,1,1716.0,1767.0,1747.0,1755.0,1725.0,1747.0,1754.0,1721.0,-90.09701538085938,-6.746955394744873,-54.52909469604492,down
3432.381103515625,27691,1,1770.0,1768.0,1769.0,1753.0,1752.0,1752.0,1758.0,1742.0,-90.09701538085938,-6.746955394744873,-54.52909469604492,down
3434.381103515625,27691,1,1816.0,1755.0,1766.0,1750.0,1748.0,1739.0,1756.0,1802.0,-90.09701538085938,-6.746955394744873,-54.52909469604492,down
3436.381103515625,27691,1,1754.0,1754.0,1755.0,1743.0,1755.0,1747.0,1759.0,1719.0,-90.09701538085938,-6.746955394744873,-54.52909469604492,down
3438.381103515625,27691,1,1743.0,1765.0,1757.0,1768.0,1751.0,1752.0,1757.0,1766.0,-90.09701538085938,-6.746955394744873,-54.52909469604492,down
3440.381103515625,27691,1,1757.0,1757.0,1759.0,1758.0,1747.0,1747.0,1755.0,1736.0,-90.09701538085938,-6.746955394744873,-54.52909469604492,down
3434.612060546875,27692,1,1751.0,1756.0,1774.0,1766.0,1749.0,1751.0,1759.0,1734.0,-90.09701538085938,-6.746955394744873,-54.52909469604492,down
3436.612060546875,27692,1,1738.0,1739.0,1749.0,1751.0,1739.0,1752.0,1758.0,1739.0,-90.09701538085938,-6.746955394744873,-54.52909469604492,down
3438.612060546875,27692,1,1728.0,1751.0,1863.0,1759.0,1755.0,1747.0,1759.0,1831.0,-90.09701538085938,-6.746955394744873,-54.52909469604492,down
3440.612060546875,27692,1,1735.0,1737.0,1531.0,1698.0,1717.0,1747.0,1759.0,1735.0,-90.09701538085938,-6.746955394744873,-54.52909469604492,down
3442.612060546875,27692,1,1758.0,1792.0,1755.0,1798.0,1775.0,1750.0,1759.0,1657.0,-90.09701538085938,-6.746955394744873,-54.52909469604492,down
3468.47509765625,27693,1,1815.0,1783.0,1865.0,1751.0,1787.0,1746.0,1765.0,1803.0,-90.09701538085938,-6.746955394744873,-54.52909469604492,down
3470.47509765625,27693,1,1754.0,1781.0,1727.0,1803.0,1759.0,1749.0,1758.0,1661.0,-90.09701538085938,-6.746955394744873,-54.52909469604492,down
3472.47509765625,27693,1,1723.0,1772.0,1853.0,1767.0,1767.0,1747.0,1763.0,1831.0,-90.09701538085938,-6.746955394744873,-54.52909469604492,down
3474.47509765625,27693,1,1699.0,1739.0,1620.0,1725.0,1717.0,1752.0,1763.0,1728.0,-90.09701538085938,-6.746955394744873,-54.52909469604492,down
3476.47509765625,27693,1,1803.0,1738.0,1717.0,1749.0,1741.0,1751.0,1759.0,1743.0,-90.09701538085938,-6.746955394744873,-54.52909469604492,down
3469.498046875,27694,1,1739.0,1756.0,1726.0,1765.0,1739.0,1747.0,1756.0,1748.0,-90.09701538085938,-6.746955394744873,-54.52909469604492,down
3471.498046875,27694,1,1756.0,1739.0,1757.0,1741.0,1717.0,1751.0,1754.0,1711.0,-90.09701538085938,-6.746955394744873,-54.52909469604492,down
3473.498046875,27694,1,1725.0,1739.0,1763.0,1752.0,1725.0,1751.0,1762.0,1753.0,-90.09701538085938,-6.746955394744873,-54.52909469604492,down
3475.498046875,27694,1,1749.0,1763.0,1768.0,1755.0,1747.0,1753.0,1759.0,1719.0,-90.09701538085938,-6.746955394744873,-54.52909469604492,down
3477.498046875,27694,1,1789.0,1799.0,1769.0,1764.0,1781.0,1749.0,1754.0,1749.0,-90.09701538085938,-6.746955394744873,-54.52909469604492,down
3470.06787109375,27695,1,1771.0,1774.0,1770.0,1758.0,1767.0,1753.0,1759.0,1838.0,-90.19259643554688,-6.746212005615234,-54.711769104003906,down
3472.06787109375,27695,1,1779.0,1775.0,1769.0,1769.0,1771.0,1752.0,1754.0,1737.0,-90.19259643554688,-6.746212005615234,-54.711769104003906,down
3474.06787109375,27695,1,1671.0,1751.0,1742.0,1743.0,1765.0,1751.0,1758.0,1687.0,-90.19259643554688,-6.746212005615234,-54.711769104003906,down
3476.06787109375,27695,1,1755.0,1757.0,1776.0,1837.0,1757.0,1751.0,1763.0,1693.0,-90.19259643554688,-6.746212005615234,-54.711769104003906,down
3478.06787109375,27695,1,1849.0,1739.0,1799.0,1770.0,1748.0,1752.0,1757.0,1885.0,-90.19259643554688,-6.746212005615234,-54.711769104003906,down
3485.830078125,27696,1,1748.0,1735.0,1671.0,1725.0,1725.0,1751.0,1758.0,1800.0,-90.19259643554688,-6.746212005615234,-54.711769104003906,down
3487.830078125,27696,1,1768.0,1752.0,1749.0,1741.0,1752.0,1746.0,1751.0,1707.0,-90.19259643554688,-6.746212005615234,-54.711769104003906,down
3489.830078125,27696,1,1748.0,1734.0,1800.0,1771.0,1749.0,1747.0,1762.0,1771.0,-90.19259643554688,-6.746212005615234,-54.711769104003906,down
3491.830078125,27696,1,1657.0,1765.0,1783.0,1747.0,1734.0,1751.0,1758.0,1659.0,-90.19259643554688,-6.746212005615234,-54.711769104003906,down
3493.830078125,27696,1,1791.0,1724.0,1557.0,1687.0,1701.0,1751.0,1763.0,1772.0,-90.19259643554688,-6.746212005615234,-54.711769104003906,down
3502.460205078125,27697,1,1881.0,1825.0,1823.0,1839.0,1802.0,1752.0,1761.0,1785.0,-90.19259643554688,-6.746212005615234,-54.711769104003906,down
3504.460205078125,27697,1,1717.0,1756.0,1707.0,1738.0,1736.0,1751.0,1758.0,1818.0,-90.19259643554688,-6.746212005615234,-54.711769104003906,down
3506.460205078125,27697,1,1741.0,1751.0,1755.0,1707.0,1726.0,1749.0,1763.0,1703.0,-90.19259643554688,-6.746212005615234,-54.711769104003906,down
3508.460205078125,27697,1,1759.0,1765.0,1646.0,1765.0,1759.0,1751.0,1755.0,1699.0,-90.19259643554688,-6.746212005615234,-54.711769104003906,down
3510.460205078125,27697,1,1709.0,1745.0,1733.0,1725.0,1741.0,1749.0,1761.0,1747.0,-90.19259643554688,-6.746212005615234,-54.711769104003906,down
3507.531005859375,27698,1,1815.0,1773.0,1763.0,1779.0,1767.0,1751.0,1755.0,1780.0,-90.19259643554688,-6.746212005615234,-54.711769104003906,down
3509.531005859375,27698,1,1754.0,1763.0,1753.0,1763.0,1745.0,1751.0,1757.0,1755.0,-90.19259643554688,-6.746212005615234,-54.711769104003906,down
3511.531005859375,27698,1,1715.0,1764.0,1767.0,1763.0,1749.0,1751.0,1761.0,1707.0,-90.19259643554688,-6.746212005615234,-54.711769104003906,down
3513.531005859375,27698,1,1733.0,1753.0,1673.0,1752.0,1747.0,1743.0,1763.0,1735.0,-90.19259643554688,-6.746212005615234,-54.711769104003906,down
3515.531005859375,27698,1,1750.0,1750.0,1741.0,1723.0,1725.0,1749.0,1754.0,1766.0,-90.19259643554688,-6.746212005615234,-54.711769104003906,down
3508.188232421875,27699,1,1800.0,1747.0,1573.0,1715.0,1739.0,1751.0,1759.0,1644.0,-90.19259643554688,-6.746212005615234,-54.711769104003906,down
3510.188232421875,27699,1,1763.0,1759.0,1899.0,1743.0,1747.0,1747.0,1763.0,1700.0,-90.19259643554688,-6.746212005615234,-54.711769104003906,down
3512.188232421875,27699,1,1791.0,1770.0,1684.0,1756.0,1743.0,1753.0,1755.0,1775.0,-90.19259643554688,-6.746212005615234,-54.711769104003906,down
3514.188232421875,27699,1,1765.0,1767.0,1738.0,1771.0,1767.0,1751.0,1759.0,1725.0,-90.19259643554688,-6.746212005615234,-54.711769104003906,down
3516.188232421875,27699,1,1749.0,1771.0,1789.0,1761.0,1771.0,1752.0,1755.0,1743.0,-90.19259643554688,-6.746212005615234,-54.711769104003906,down
3520.412109375,27700,1,1692.0,1745.0,1749.0,1763.0,1750.0,1750.0,1758.0,1727.0,-90.19259643554688,-6.746212005615234,-54.711769104003906,down
3522.412109375,27700,1,1861.0,1767.0,1765.0,1771.0,1749.0,1753.0,1751.0,1781.0,-90.19259643554688,-6.746212005615234,-54.711769104003906,down
3524.412109375,27700,1,1801.0,1751.0,1787.0,1727.0,1762.0,1749.0,1756.0,1707.0,-90.19259643554688,-6.746212005615234,-54.711769104003906,down
3526.412109375,27700,1,1677.0,1747.0,1749.0,1723.0,1737.0,1748.0,1759.0,1770.0,-90.19259643554688,-6.746212005615234,-54.711769104003906,down
3528.412109375,27700,1,1701.0,1759.0,1700.0,1747.0,1738.0,1751.0,1757.0,1723.0,-90.19259643554688,-6.746212005615234,-54.711769104003906,down
3536.23828125,27701,1,1851.0,1767.0,1849.0,1779.0,1753.0,1751.0,1755.0,1885.0,-90.19259643554688,-6.746212005615234,-54.711769104003906,down
3538.23828125,27701,1,1764.0,1784.0,1567.0,1775.0,1779.0,1752.0,1756.0,1752.0,-90.19259643554688,-6.746212005615234,-54.711769104003906,down
3540.23828125,27701,1,1709.0,1779.0,1739.0,1775.0,1763.0,1752.0,1762.0,1757.0,-90.0676498413086,-6.713797092437744,-54.84767150878906,down
3542.23828125,27701,1,1719.0,1748.0,1737.0,1735.0,1752.0,1749.0,1762.0,1757.0,-90.0676498413086,-6.713797092437744,-54.84767150878906,down
3544.23828125,27701,1,1773.0,1741.0,1725.0,1750.0,1746.0,1753.0,1755.0,1719.0,-90.0676498413086,-6.713797092437744,-54.84767150878906,down
3536.736083984375,27702,1,1770.0,1753.0,1747.0,1758.0,1747.0,1752.0,1763.0,1705.0,-90.0676498413086,-6.713797092437744,-54.84767150878906,down
3538.736083984375,27702,1,1743.0,1753.0,1755.0,1753.0,1742.0,1753.0,1759.0,1751.0,-90.0676498413086,-6.713797092437744,-54.84767150878906,down
3540.736083984375,27702,1,1751.0,1754.0,1767.0,1765.0,1751.0,1753.0,1758.0,1791.0,-90.0676498413086,-6.713797092437744,-54.84767150878906,down
3542.736083984375,27702,1,1756.0,1749.0,1759.0,1751.0,1743.0,1750.0,1763.0,1761.0,-90.0676498413086,-6.713797092437744,-54.84767150878906,down
3544.736083984375,27702,1,1747.0,1758.0,1741.0,1756.0,1757.0,1752.0,1755.0,1727.0,-90.0676498413086,-6.713797092437744,-54.84767150878906,down
3564.040283203125,27703,1,1735.0,1773.0,1776.0,1757.0,1737.0,1748.0,1757.0,1750.0,-90.0676498413086,-6.713797092437744,-54.84767150878906,down
3566.040283203125,27703,1,1801.0,1768.0,1779.0,1756.0,1736.0,1750.0,1761.0,1705.0,-90.0676498413086,-6.713797092437744,-54.84767150878906,down
3568.040283203125,27703,1,1746.0,1785.0,1785.0,1752.0,1747.0,1751.0,1759.0,1803.0,-90.0676498413086,-6.713797092437744,-54.84767150878906,down
3570.040283203125,27703,1,1767.0,1769.0,1773.0,1772.0,1755.0,1752.0,1763.0,1739.0,-90.0676498413086,-6.713797092437744,-54.84767150878906,down
3572.040283203125,27703,1,1716.0,1727.0,1749.0,1709.0,1749.0,1750.0,1759.0,1703.0,-90.0676498413086,-6.713797092437744,-54.84767150878906,down
3564.539306640625,27704,1,1756.0,1766.0,1767.0,1772.0,1764.0,1743.0,1762.0,1717.0,-90.0676498413086,-6.713797092437744,-54.84767150878906,down
3566.539306640625,27704,1,1928.0,1749.0,1709.0,1772.0,1772.0,1747.0,1753.0,1742.0,-90.0676498413086,-6.713797092437744,-54.84767150878906,down
3568.539306640625,27704,1,1724.0,1773.0,1861.0,1769.0,1773.0,1751.0,1763.0,1721.0,-90.0676498413086,-6.713797092437744,-54.84767150878906,down
3570.539306640625,27704,1,1743.0,1749.0,1751.0,1751.0,1727.0,1747.0,1758.0,1773.0,-90.0676498413086,-6.713797092437744,-54.84767150878906,down
3572.539306640625,27704,1,1797.0,1791.0,1829.0,1803.0,1765.0,1751.0,1763.0,1804.0,-90.0676498413086,-6.713797092437744,-54.84767150878906,down
3564.81005859375,27705,1,1755.0,1764.0,1705.0,1739.0,1739.0,1752.0,1763.0,1683.0,-90.0676498413086,-6.713797092437744,-54.84767150878906,down
3566.81005859375,27705,1,1763.0,1771.0,1757.0,1753.0,1755.0,1749.0,1756.0,1751.0,-90.0676498413086,-6.713797092437744,-54.84767150878906,down
3568.81005859375,27705,1,1653.0,1767.0,1763.0,1767.0,1751.0,1752.0,1761.0,1686.0,-90.0676498413086,-6.713797092437744,-54.84767150878906,down
3570.81005859375,27705,1,1688.0,1741.0,1752.0,1741.0,1735.0,1752.0,1758.0,1725.0,-90.0676498413086,-6.713797092437744,-54.84767150878906,down
3572.81005859375,27705,1,1826.0,1725.0,1735.0,1723.0,1727.0,1750.0,1759.0,1879.0,-90.0676498413086,-6.713797092437744,-54.84767150878906,down
3583.6982421875,27706,1,1845.0,1747.0,1772.0,1757.0,1756.0,1752.0,1759.0,1771.0,-90.0676498413086,-6.713797092437744,-54.84767150878906,down
3585.6982421875,27706,1,1739.0,1768.0,1762.0,1781.0,1757.0,1751.0,1753.0,1747.0,-90.0676498413086,-6.713797092437744,-54.84767150878906,down
3587.6982421875,27706,1,1717.0,1763.0,1753.0,1753.0,1761.0,1753.0,1755.0,1670.0,-90.0676498413086,-6.713797092437744,-54.84767150878906,down
3589.6982421875,27706,1,1749.0,1767.0,1727.0,1747.0,1763.0,1750.0,1758.0,1817.0,-90.0676498413086,-6.713797092437744,-54.84767150878906,down
3591.6982421875,27706,1,1803.0,1772.0,1769.0,1758.0,1736.0,1747.0,1759.0,1738.0,-90.0676498413086,-6.713797092437744,-54.84767150878906,down
3584.134033203125,27707,1,1715.0,1776.0,1749.0,1773.0,1725.0,1749.0,1762.0,1637.0,-90.0676498413086,-6.713797092437744,-54.84767150878906,down
3586.134033203125,27707,1,1688.0,1755.0,1742.0,1753.0,1741.0,1747.0,1757.0,1799.0,-90.0676498413086,-6.713797092437744,-54.84767150878906,down
3588.134033203125,27707,1,1806.0,1747.0,1845.0,1726.0,1741.0,1749.0,1755.0,1813.0,-90.0676498413086,-6.713797092437744,-54.84767150878906,down
3590.134033203125,27707,1,1847.0,1768.0,1817.0,1747.0,1759.0,1747.0,1759.0,1701.0,-90.0676498413086,-6.713797092437744,-54.84767150878906,down
3592.134033203125,27707,1,1755.0,1749.0,1749.0,1798.0,1749.0,1750.0,1758.0,1774.0,-90.0676498413086,-6.713797092437744,-54.84767150878906,down
3607.572021484375,27708,1,1741.0,1772.0,1719.0,1791.0,1784.0,1751.0,1762.0,1772.0,-89.9234619140625,-6.589785099029541,-55.075286865234375,down
3609.572021484375,27708,1,1727.0,1774.0,1763.0,1769.0,1781.0,1751.0,1759.0,1719.0,-89.9234619140625,-6.589785099029541,-55.075286865234375,down
3611.572021484375,27708,1,1845.0,1765.0,1848.0,1757.0,1753.0,1748.0,1759.0,1846.0,-89.9234619140625,-6.589785099029541,-55.075286865234375,down
3613.572021484375,27708,1,1733.0,1756.0,1751.0,1752.0,1747.0,1751.0,1757.0,1674.0,-89.9234619140625,-6.589785099029541,-55.075286865234375,down
3615.572021484375,27708,1,1775.0,1759.0,1735.0,1767.0,1742.0,1751.0,1763.0,1752.0,-89.9234619140625,-6.589785099029541,-55.075286865234375,down
3608.25390625,27709,1,1755.0,1769.0,1763.0,1751.0,1752.0,1749.0,1762.0,1733.0,-89.9234619140625,-6.589785099029541,-55.075286865234375,down
3610.25390625,27709,1,1721.0,1771.0,1755.0,1750.0,1753.0,1751.0,1757.0,1719.0,-89.9234619140625,-6.589785099029541,-55.075286865234375,down
3612.25390625,27709,1,1736.0,1762.0,1761.0,1767.0,1753.0,1752.0,1759.0,1753.0,-89.9234619140625,-6.589785099029541,-55.075286865234375,down
3614.25390625,27709,1,1811.0,1758.0,1757.0,1753.0,1739.0,1752.0,1762.0,1752.0,-89.9234619140625,-6.589785099029541,-55.075286865234375,down
3616.25390625,27709,1,1763.0,1751.0,1753.0,1749.0,1741.0,1751.0,1758.0,1757.0,-89.9234619140625,-6.589785099029541,-55.075286865234375,down
3653.291015625,27710,1,1738.0,1753.0,1781.0,1765.0,1755.0,1746.0,1759.0,1767.0,-89.9234619140625,-6.589785099029541,-55.075286865234375,down
3655.291015625,27710,1,1763.0,1750.0,1757.0,1765.0,1707.0,1751.0,1754.0,1762.0,-89.9234619140625,-6.589785099029541,-55.075286865234375,down
3657.291015625,27710,1,1771.0,1755.0,1752.0,1753.0,1740.0,1747.0,1757.0,1743.0,-89.9234619140625,-6.589785099029541,-55.075286865234375,down
3659.291015625,27710,1,1748.0,1755.0,1753.0,1757.0,1737.0,1751.0,1755.0,1743.0,-89.9234619140625,-6.589785099029541,-55.075286865234375,down
3661.291015625,27710,1,1751.0,1763.0,1751.0,1753.0,1747.0,1751.0,1758.0,1724.0,-89.9234619140625,-6.589785099029541,-55.075286865234375,down
3656.3310546875,27711,1,1753.0,1779.0,1779.0,1799.0,1763.0,1747.0,1753.0,1765.0,-89.9234619140625,-6.589785099029541,-55.075286865234375,down
3658.3310546875,27711,1,1751.0,1752.0,1709.0,1723.0,1745.0,1751.0,1759.0,1717.0,-89.9234619140625,-6.589785099029541,-55.075286865234375,down
3660.3310546875,27711,1,1757.0,1779.0,1764.0,1775.0,1756.0,1751.0,1758.0,1736.0,-89.9234619140625,-6.589785099029541,-55.075286865234375,down
3662.3310546875,27711,1,1747.0,1771.0,1725.0,1784.0,1747.0,1751.0,1762.0,1747.0,-89.9234619140625,-6.589785099029541,-55.075286865234375,down
3664.3310546875,27711,1,1752.0,1741.0,1847.0,1742.0,1743.0,1753.0,1763.0,1757.0,-89.9234619140625,-6.589785099029541,-55.075286865234375,down
3656.989990234375,27712,1,1772.0,1767.0,1703.0,1799.0,1741.0,1749.0,1755.0,1723.0,-89.9234619140625,-6.589785099029541,-55.075286865234375,down
3658.989990234375,27712,1,1709.0,1751.0,1835.0,1787.0,1724.0,1751.0,1760.0,1817.0,-89.9234619140625,-6.589785099029541,-55.075286865234375,down
3660.989990234375,27712,1,1788.0,1763.0,1700.0,1750.0,1789.0,1751.0,1759.0,1779.0,-89.9234619140625,-6.589785099029541,-55.075286865234375,down
3662.989990234375,27712,1,1749.0,1791.0,1758.0,1779.0,1801.0,1751.0,1763.0,1734.0,-89.9234619140625,-6.589785099029541,-55.075286865234375,down
3664.989990234375,27712,1,1799.0,1759.0,1814.0,1748.0,1755.0,1753.0,1755.0,1837.0,-89.9234619140625,-6.589785099029541,-55.075286865234375,down
3657.58203125,27713,1,1799.0,1727.0,1737.0,1725.0,1725.0,1750.0,1761.0,1768.0,-89.9234619140625,-6.589785099029541,-55.075286865234375,down
3659.58203125,27713,1,1765.0,1775.0,1770.0,1764.0,1745.0,1753.0,1757.0,1726.0,-89.9234619140625,-6.589785099029541,-55.075286865234375,down
3661.58203125,27713,1,1736.0,1757.0,1736.0,1747.0,1739.0,1753.0,1755.0,1710.0,-89.9234619140625,-6.589785099029541,-55.075286865234375,down
3663.58203125,27713,1,1747.0,1761.0,1756.0,1765.0,1746.0,1750.0,1757.0,1740.0,-89.9234619140625,-6.589785099029541,-55.075286865234375,down
3665.58203125,27713,1,1741.0,1763.0,1737.0,1763.0,1749.0,1752.0,1758.0,1733.0,-89.9234619140625,-6.589785099029541,-55.075286865234375,down
3670.989990234375,27714,1,1763.0,1757.0,1812.0,1765.0,1758.0,1751.0,1762.0,1785.0,-89.9234619140625,-6.589785099029541,-55.075286865234375,down
3672.989990234375,27714,1,1693.0,1755.0,1691.0,1757.0,1751.0,1747.0,1757.0,1753.0,-89.9234619140625,-6.589785099029541,-55.075286865234375,down
3674.989990234375,27714,1,1763.0,1758.0,1757.0,1757.0,1743.0,1753.0,1758.0,1719.0,-89.76019287109375,-6.553585052490234,-55.22857666015625,down
3676.989990234375,27714,1,1835.0,1759.0,1769.0,1757.0,1748.0,1751.0,1758.0,1772.0,-89.76019287109375,-6.553585052490234,-55.22857666015625,down
3678.989990234375,27714,1,1743.0,1765.0,1755.0,1753.0,1741.0,1751.0,1755.0,1739.0,-89.76019287109375,-6.553585052490234,-55.22857666015625,down
3671.572021484375,27715,1,1747.0,1769.0,1757.0,1751.0,1743.0,1751.0,1755.0,1752.0,-89.76019287109375,-6.553585052490234,-55.22857666015625,down
3673.572021484375,27715,1,1770.0,1767.0,1757.0,1757.0,1753.0,1747.0,1767.0,1737.0,-89.76019287109375,-6.553585052490234,-55.22857666015625,down
3675.572021484375,27715,1,1752.0,1769.0,1757.0,1762.0,1757.0,1752.0,1757.0,1749.0,-89.76019287109375,-6.553585052490234,-55.22857666015625,down
3677.572021484375,27715,1,1763.0,1759.0,1757.0,1771.0,1763.0,1753.0,1759.0,1753.0,-89.76019287109375,-6.553585052490234,-55.22857666015625,down
3679.572021484375,27715,1,1749.0,1756.0,1753.0,1734.0,1753.0,1753.0,1758.0,1741.0,-89.76019287109375,-6.553585052490234,-55.22857666015625,down
3672.159912109375,27716,1,1779.0,1749.0,1767.0,1753.0,1752.0,1749.0,1761.0,1752.0,-89.76019287109375,-6.553585052490234,-55.22857666015625,down
