Timestamp_ms,Packet_Number,Trial_ID,Ch1,Ch2,Ch3,Ch4,Ch5,Ch6,Ch7,Ch8,Ch9,Ch10,Ch11,Label
1968.39501953125,17115,1,1747.0,1751.0,1758.0,1760.0,2697.0,1749.0,1763.0,1747.0,-128.96958923339844,-12.24705982208252,-62.28661346435547,Left
1970.39501953125,17115,1,1771.0,1748.0,1755.0,1757.0,2515.0,1746.0,1759.0,1747.0,-128.96958923339844,-12.24705982208252,-62.28661346435547,Left
1972.39501953125,17115,1,1751.0,1757.0,1755.0,1753.0,0.0,1751.0,1755.0,1749.0,-128.96958923339844,-12.24705982208252,-62.28661346435547,Left
1974.39501953125,17115,1,1775.0,1773.0,1755.0,1743.0,0.0,1746.0,1758.0,1749.0,-128.96958923339844,-12.24705982208252,-62.28661346435547,Left
1976.39501953125,17115,1,1899.0,1773.0,1748.0,1753.0,0.0,1752.0,1759.0,1752.0,-128.96958923339844,-12.24705982208252,-62.28661346435547,Left
1978.0430908203125,17116,1,1721.0,1771.0,1753.0,1756.0,0.0,1753.0,1765.0,1747.0,-128.96958923339844,-12.24705982208252,-62.28661346435547,Left
1980.0430908203125,17116,1,1740.0,1767.0,1758.0,1769.0,0.0,1743.0,1755.0,1751.0,-128.96958923339844,-12.24705982208252,-62.28661346435547,Left
1982.0430908203125,17116,1,1758.0,1762.0,1763.0,1763.0,3787.0,1750.0,1757.0,1747.0,-128.92626953125,-12.192935943603516,-62.308387756347656,Left
1984.0430908203125,17116,1,1831.0,1749.0,1758.0,1757.0,3789.0,1751.0,1756.0,1748.0,-128.92626953125,-12.192935943603516,-62.308387756347656,Left
1986.0430908203125,17116,1,1748.0,1755.0,1759.0,1757.0,3799.0,1751.0,1761.0,1747.0,-128.92626953125,-12.192935943603516,-62.308387756347656,Left
1990.6751708984375,17117,1,1751.0,1747.0,1756.0,1753.0,3799.0,1750.0,1763.0,1743.0,-128.92626953125,-12.192935943603516,-62.308387756347656,Left
1992.6751708984375,17117,1,1768.0,1739.0,1755.0,1753.0,3801.0,1749.0,1755.0,1740.0,-128.92626953125,-12.192935943603516,-62.308387756347656,Left
1994.6751708984375,17117,1,1772.0,1753.0,1756.0,1753.0,0.0,1753.0,1758.0,1743.0,-128.92626953125,-12.192935943603516,-62.308387756347656,Left
1996.6751708984375,17117,1,1771.0,1773.0,1751.0,1753.0,0.0,1751.0,1759.0,1749.0,-128.92626953125,-12.192935943603516,-62.308387756347656,Left
1998.6751708984375,17117,1,1743.0,1768.0,1757.0,1755.0,0.0,1747.0,1762.0,1739.0,-128.92626953125,-12.192935943603516,-62.308387756347656,Left
1998.22119140625,17118,1,1775.0,1767.0,1756.0,1755.0,0.0,1752.0,1759.0,1748.0,-128.92626953125,-12.192935943603516,-62.308387756347656,Left
2000.22119140625,17118,1,1721.0,1755.0,1740.0,1754.0,0.0,1753.0,1753.0,1751.0,-128.92626953125,-12.192935943603516,-62.308387756347656,Left
2002.22119140625,17118,1,1615.0,1769.0,1758.0,1755.0,137.0,1743.0,1763.0,1755.0,-128.92626953125,-12.192935943603516,-62.308387756347656,Left
2004.22119140625,17118,1,1703.0,1764.0,1751.0,1758.0,3791.0,1749.0,1764.0,1749.0,-128.92626953125,-12.192935943603516,-62.308387756347656,Left
2006.22119140625,17118,1,1709.0,1753.0,1757.0,1762.0,3785.0,1749.0,1763.0,1752.0,-128.92626953125,-12.192935943603516,-62.308387756347656,Left
2012.0093994140625,17119,1,1743.0,1751.0,1755.0,1767.0,3791.0,1752.0,1763.0,1751.0,-128.92626953125,-12.192935943603516,-62.308387756347656,Left
2014.0093994140625,17119,1,1814.0,1749.0,1757.0,1755.0,3799.0,1752.0,1763.0,1749.0,-128.92626953125,-12.192935943603516,-62.308387756347656,Left
2016.0093994140625,17119,1,1719.0,1764.0,1755.0,1749.0,0.0,1753.0,1759.0,1743.0,-128.92626953125,-12.192935943603516,-62.308387756347656,Left
2018.0093994140625,17119,1,1752.0,1770.0,1755.0,1753.0,0.0,1752.0,1763.0,1749.0,-128.92626953125,-12.192935943603516,-62.308387756347656,Left
2020.0093994140625,17119,1,1757.0,1765.0,1749.0,1758.0,0.0,1753.0,1758.0,1748.0,-128.92626953125,-12.192935943603516,-62.308387756347656,Left
2016.7281494140625,17120,1,1745.0,1771.0,1755.0,1755.0,0.0,1753.0,1761.0,1746.0,-128.92626953125,-12.192935943603516,-62.308387756347656,Left
2018.7281494140625,17120,1,1741.0,1768.0,1761.0,1757.0,0.0,1743.0,1764.0,1749.0,-128.92626953125,-12.192935943603516,-62.308387756347656,Left
2020.7281494140625,17120,1,1742.0,1752.0,1756.0,1762.0,0.0,1746.0,1759.0,1748.0,-128.92626953125,-12.192935943603516,-62.308387756347656,Left
2022.7281494140625,17120,1,1737.0,1757.0,1753.0,1752.0,3785.0,1747.0,1763.0,1747.0,-128.92626953125,-12.192935943603516,-62.308387756347656,Left
2024.7281494140625,17120,1,1763.0,1757.0,1756.0,1753.0,3783.0,1752.0,1763.0,1748.0,-128.92626953125,-12.192935943603516,-62.308387756347656,Left
2020.4903564453125,17121,1,1772.0,1743.0,1756.0,1756.0,3793.0,1751.0,1755.0,1751.0,-128.92626953125,-12.192935943603516,-62.308387756347656,Left
2022.4903564453125,17121,1,1769.0,1752.0,1757.0,1756.0,3642.0,1751.0,1762.0,1753.0,-128.92626953125,-12.192935943603516,-62.308387756347656,Left
2024.4903564453125,17121,1,1743.0,1769.0,1755.0,1759.0,0.0,1751.0,1763.0,1748.0,-128.92626953125,-12.192935943603516,-62.308387756347656,Left
2026.4903564453125,17121,1,1768.0,1771.0,1753.0,1756.0,0.0,1737.0,1759.0,1748.0,-128.92626953125,-12.192935943603516,-62.308387756347656,Left
2028.4903564453125,17121,1,1749.0,1775.0,1754.0,1756.0,0.0,1751.0,1756.0,1751.0,-128.92626953125,-12.192935943603516,-62.308387756347656,Left
2047.6312255859375,17122,1,1737.0,1771.0,1751.0,1753.0,0.0,1751.0,1763.0,1741.0,-128.92626953125,-12.192935943603516,-62.308387756347656,Left
2049.63134765625,17122,1,1707.0,1769.0,1757.0,1763.0,914.0,1751.0,1759.0,1747.0,-128.92626953125,-12.192935943603516,-62.308387756347656,Left
2051.63134765625,17122,1,1617.0,1767.0,1756.0,1757.0,3797.0,1753.0,1763.0,1749.0,-128.92626953125,-12.192935943603516,-62.308387756347656,Left
2053.63134765625,17122,1,1704.0,1753.0,1752.0,1757.0,3791.0,1750.0,1763.0,1745.0,-128.92626953125,-12.192935943603516,-62.308387756347656,Left
2055.63134765625,17122,1,1725.0,1753.0,1751.0,1751.0,3787.0,1750.0,1759.0,1749.0,-128.87957763671875,-12.165294647216797,-62.35755920410156,Left
2048.761962890625,17123,1,1753.0,1748.0,1755.0,1755.0,3795.0,1751.0,1763.0,1751.0,-128.87957763671875,-12.165294647216797,-62.35755920410156,Left
2050.761962890625,17123,1,1800.0,1749.0,1751.0,1762.0,3785.0,1751.0,1764.0,1741.0,-128.87957763671875,-12.165294647216797,-62.35755920410156,Left
2052.761962890625,17123,1,1763.0,1752.0,1756.0,1759.0,0.0,1753.0,1752.0,1745.0,-128.87957763671875,-12.165294647216797,-62.35755920410156,Left
2054.761962890625,17123,1,1751.0,1774.0,1755.0,1749.0,0.0,1750.0,1759.0,1751.0,-128.87957763671875,-12.165294647216797,-62.35755920410156,Left
2056.761962890625,17123,1,1782.0,1775.0,1755.0,1755.0,0.0,1753.0,1753.0,1755.0,-128.87957763671875,-12.165294647216797,-62.35755920410156,Left
2049.441162109375,17124,1,1991.0,1733.0,1763.0,1759.0,0.0,1751.0,1755.0,1752.0,-128.87957763671875,-12.165294647216797,-62.35755920410156,Left
2051.441162109375,17124,1,1639.0,1763.0,1759.0,1759.0,0.0,1751.0,1763.0,1747.0,-128.87957763671875,-12.165294647216797,-62.35755920410156,Left
2053.441162109375,17124,1,1640.0,1763.0,1757.0,1763.0,0.0,1751.0,1763.0,1751.0,-128.87957763671875,-12.165294647216797,-62.35755920410156,Left
2055.441162109375,17124,1,1711.0,1755.0,1759.0,1759.0,2761.0,1752.0,1759.0,1749.0,-128.87957763671875,-12.165294647216797,-62.35755920410156,Left
2057.441162109375,17124,1,1749.0,1752.0,1752.0,1763.0,3791.0,1753.0,1759.0,1749.0,-128.87957763671875,-12.165294647216797,-62.35755920410156,Left
2066.64111328125,17125,1,1748.0,1752.0,1752.0,1759.0,3795.0,1753.0,1763.0,1747.0,-128.87957763671875,-12.165294647216797,-62.35755920410156,Left
2068.64111328125,17125,1,1771.0,1755.0,1757.0,1755.0,3799.0,1755.0,1763.0,1737.0,-128.87957763671875,-12.165294647216797,-62.35755920410156,Left
2070.64111328125,17125,1,1765.0,1765.0,1755.0,1751.0,0.0,1751.0,1753.0,1751.0,-128.87957763671875,-12.165294647216797,-62.35755920410156,Left
2072.64111328125,17125,1,1751.0,1772.0,1752.0,1757.0,0.0,1753.0,1762.0,1749.0,-128.87957763671875,-12.165294647216797,-62.35755920410156,Left
2074.64111328125,17125,1,1753.0,1773.0,1754.0,1755.0,0.0,1751.0,1762.0,1742.0,-128.87957763671875,-12.165294647216797,-62.35755920410156,Left
2079.276123046875,17126,1,1738.0,1767.0,1755.0,1757.0,0.0,1750.0,1759.0,1741.0,-128.87957763671875,-12.165294647216797,-62.35755920410156,Left
2081.276123046875,17126,1,1735.0,1771.0,1758.0,1757.0,0.0,1743.0,1759.0,1741.0,-128.87957763671875,-12.165294647216797,-62.35755920410156,Left
2083.276123046875,17126,1,1733.0,1762.0,1757.0,1754.0,3800.0,1752.0,1763.0,1751.0,-128.87957763671875,-12.165294647216797,-62.35755920410156,Left
2085.276123046875,17126,1,1655.0,1763.0,1759.0,1757.0,3801.0,1751.0,1761.0,1752.0,-128.87957763671875,-12.165294647216797,-62.35755920410156,Left
2087.276123046875,17126,1,1720.0,1757.0,1754.0,1759.0,3775.0,1751.0,1763.0,1752.0,-128.87957763671875,-12.165294647216797,-62.35755920410156,Left
2079.71630859375,17127,1,1762.0,1753.0,1752.0,1763.0,3788.0,1752.0,1762.0,1751.0,-128.87957763671875,-12.165294647216797,-62.35755920410156,Left
2081.71630859375,17127,1,2216.0,1712.0,1754.0,1754.0,3786.0,1753.0,1758.0,1751.0,-128.87957763671875,-12.165294647216797,-62.35755920410156,Left
2083.71630859375,17127,1,1653.0,1767.0,1755.0,1755.0,3805.0,1747.0,1762.0,1747.0,-128.87957763671875,-12.165294647216797,-62.35755920410156,Left
2085.71630859375,17127,1,1689.0,1771.0,1755.0,1755.0,0.0,1751.0,1762.0,1747.0,-128.87957763671875,-12.165294647216797,-62.35755920410156,Left
2087.71630859375,17127,1,1715.0,1774.0,1757.0,1754.0,0.0,1751.0,1762.0,1747.0,-128.87957763671875,-12.165294647216797,-62.35755920410156,Left
2092.582275390625,17128,1,1780.0,1769.0,1757.0,1753.0,0.0,1751.0,1754.0,1750.0,-128.87957763671875,-12.165294647216797,-62.35755920410156,Left
2094.582275390625,17128,1,1725.0,1770.0,1755.0,1763.0,2551.0,1747.0,1753.0,1748.0,-128.87957763671875,-12.165294647216797,-62.35755920410156,Left
2096.582275390625,17128,1,1746.0,1757.0,1757.0,1753.0,3790.0,1753.0,1757.0,1750.0,-128.87957763671875,-12.165294647216797,-62.35755920410156,Left
2098.582275390625,17128,1,1758.0,1753.0,1757.0,1763.0,3788.0,1751.0,1762.0,1747.0,-128.87957763671875,-12.165294647216797,-62.35755920410156,Left
2100.582275390625,17128,1,1769.0,1752.0,1755.0,1753.0,3795.0,1751.0,1764.0,1749.0,-128.87957763671875,-12.165294647216797,-62.35755920410156,Left
2121.791259765625,17129,1,1769.0,1749.0,1755.0,1755.0,3795.0,1752.0,1759.0,1754.0,-128.87957763671875,-12.165294647216797,-62.35755920410156,Left
2123.791259765625,17129,1,1765.0,1751.0,1755.0,1756.0,3791.0,1745.0,1763.0,1743.0,-128.87957763671875,-12.165294647216797,-62.35755920410156,Left
2125.791259765625,17129,1,1815.0,1767.0,1758.0,1753.0,0.0,1745.0,1757.0,1751.0,-128.8558349609375,-12.147239685058594,-62.4078483581543,Left
2127.791259765625,17129,1,1755.0,1775.0,1756.0,1757.0,0.0,1751.0,1753.0,1745.0,-128.8558349609375,-12.147239685058594,-62.4078483581543,Left
2129.791259765625,17129,1,1741.0,1769.0,1757.0,1759.0,0.0,1752.0,1758.0,1747.0,-128.8558349609375,-12.147239685058594,-62.4078483581543,Left
2122.5302734375,17130,1,1752.0,1764.0,1755.0,1757.0,0.0,1750.0,1763.0,1740.0,-128.8558349609375,-12.147239685058594,-62.4078483581543,Left
2124.5302734375,17130,1,1757.0,1769.0,1758.0,1764.0,115.0,1753.0,1759.0,1749.0,-128.8558349609375,-12.147239685058594,-62.4078483581543,Left
2126.5302734375,17130,1,1738.0,1755.0,1757.0,1755.0,3786.0,1753.0,1763.0,1746.0,-128.8558349609375,-12.147239685058594,-62.4078483581543,Left
2128.5302734375,17130,1,1753.0,1749.0,1755.0,1759.0,3793.0,1751.0,1755.0,1751.0,-128.8558349609375,-12.147239685058594,-62.4078483581543,Left
2130.5302734375,17130,1,1750.0,1754.0,1748.0,1754.0,3795.0,1745.0,1755.0,1751.0,-128.8558349609375,-12.147239685058594,-62.4078483581543,Left
2122.88720703125,17131,1,1820.0,1745.0,1756.0,1757.0,3789.0,1742.0,1762.0,1741.0,-128.8558349609375,-12.147239685058594,-62.4078483581543,Left
2124.88720703125,17131,1,1747.0,1747.0,1757.0,1758.0,2507.0,1753.0,1759.0,1753.0,-128.8558349609375,-12.147239685058594,-62.4078483581543,Left
2126.88720703125,17131,1,1751.0,1765.0,1755.0,1753.0,0.0,1750.0,1757.0,1747.0,-128.8558349609375,-12.147239685058594,-62.4078483581543,Left
2128.88720703125,17131,1,1791.0,1772.0,1756.0,1757.0,0.0,1751.0,1758.0,1751.0,-128.8558349609375,-12.147239685058594,-62.4078483581543,Left
2130.88720703125,17131,1,1751.0,1775.0,1753.0,1757.0,0.0,1752.0,1752.0,1742.0,-128.8558349609375,-12.147239685058594,-62.4078483581543,Left
2136.722412109375,17132,1,1739.0,1767.0,1755.0,1762.0,0.0,1753.0,1763.0,1749.0,-128.8558349609375,-12.147239685058594,-62.4078483581543,Left
2138.722412109375,17132,1,1791.0,1767.0,1757.0,1755.0,659.0,1751.0,1761.0,1752.0,-128.8558349609375,-12.147239685058594,-62.4078483581543,Left
2140.722412109375,17132,1,1737.0,1763.0,1755.0,1755.0,3775.0,1751.0,1765.0,1752.0,-128.8558349609375,-12.147239685058594,-62.4078483581543,Left
2142.722412109375,17132,1,1751.0,1758.0,1759.0,1758.0,3786.0,1751.0,1761.0,1751.0,-128.8558349609375,-12.147239685058594,-62.4078483581543,Left
2144.722412109375,17132,1,1765.0,1743.0,1753.0,1752.0,3789.0,1751.0,1762.0,1748.0,-128.8558349609375,-12.147239685058594,-62.4078483581543,Left
2162.163330078125,17133,1,1756.0,1751.0,1757.0,1759.0,3795.0,1752.0,1762.0,1751.0,-128.8558349609375,-12.147239685058594,-62.4078483581543,Left
2164.163330078125,17133,1,1773.0,1742.0,1755.0,1757.0,0.0,1743.0,1759.0,1747.0,-128.8558349609375,-12.147239685058594,-62.4078483581543,Left
2166.163330078125,17133,1,1768.0,1757.0,1749.0,1751.0,0.0,1750.0,1757.0,1747.0,-128.8558349609375,-12.147239685058594,-62.4078483581543,Left
2168.163330078125,17133,1,1757.0,1772.0,1751.0,1754.0,0.0,1751.0,1762.0,1747.0,-128.8558349609375,-12.147239685058594,-62.4078483581543,Left
2170.163330078125,17133,1,1812.0,1771.0,1751.0,1757.0,0.0,1746.0,1759.0,1749.0,-128.8558349609375,-12.147239685058594,-62.4078483581543,Left
2162.953369140625,17134,1,1750.0,1783.0,1753.0,1762.0,1612.0,1746.0,1758.0,1747.0,-128.8558349609375,-12.147239685058594,-62.4078483581543,Left
2164.953369140625,17134,1,1767.0,1769.0,1757.0,1765.0,3787.0,1753.0,1759.0,1743.0,-128.8558349609375,-12.147239685058594,-62.4078483581543,Left
2166.953369140625,17134,1,1759.0,1761.0,1753.0,1755.0,3784.0,1746.0,1763.0,1747.0,-128.8558349609375,-12.147239685058594,-62.4078483581543,Left
2168.953369140625,17134,1,1763.0,1759.0,1755.0,1758.0,3797.0,1738.0,1764.0,1748.0,-128.8558349609375,-12.147239685058594,-62.4078483581543,Left
2170.953369140625,17134,1,1769.0,1741.0,1753.0,1763.0,3795.0,1751.0,1764.0,1751.0,-128.8558349609375,-12.147239685058594,-62.4078483581543,Left
2163.517333984375,17135,1,1763.0,1749.0,1755.0,1757.0,2167.0,1743.0,1754.0,1751.0,-128.8558349609375,-12.147239685058594,-62.4078483581543,Left
2165.517333984375,17135,1,1765.0,1752.0,1753.0,1757.0,0.0,1751.0,1759.0,1749.0,-128.8558349609375,-12.147239685058594,-62.4078483581543,Left
2167.517333984375,17135,1,2323.0,1723.0,1755.0,1754.0,0.0,1752.0,1759.0,1740.0,-128.8558349609375,-12.147239685058594,-62.4078483581543,Left
2169.517333984375,17135,1,1635.0,1775.0,1757.0,1749.0,0.0,1746.0,1759.0,1747.0,-128.8558349609375,-12.147239685058594,-62.4078483581543,Left
2171.517333984375,17135,1,1704.0,1773.0,1757.0,1756.0,0.0,1753.0,1761.0,1747.0,-128.81117248535156,-12.123435974121094,-62.44807052612305,Left
2174.76025390625,17136,1,1727.0,1769.0,1753.0,1759.0,0.0,1750.0,1762.0,1747.0,-128.81117248535156,-12.123435974121094,-62.44807052612305,Left
2176.76025390625,17136,1,1811.0,1769.0,1757.0,1759.0,0.0,1752.0,1763.0,1749.0,-128.81117248535156,-12.123435974121094,-62.44807052612305,Left
2178.76025390625,17136,1,1719.0,1753.0,1755.0,1759.0,3803.0,1751.0,1763.0,1749.0,-128.81117248535156,-12.123435974121094,-62.44807052612305,Left
2180.76025390625,17136,1,1739.0,1753.0,1754.0,1761.0,3787.0,1751.0,1758.0,1753.0,-128.81117248535156,-12.123435974121094,-62.44807052612305,Left
2182.76025390625,17136,1,1757.0,1751.0,1755.0,1758.0,3795.0,1753.0,1755.0,1751.0,-128.81117248535156,-12.123435974121094,-62.44807052612305,Left
2179.573974609375,17137,1,1752.0,1740.0,1747.0,1757.0,3775.0,1752.0,1759.0,1747.0,-128.81117248535156,-12.123435974121094,-62.44807052612305,Left
2181.573974609375,17137,1,1769.0,1747.0,1755.0,1758.0,3799.0,1749.0,1759.0,1747.0,-128.81117248535156,-12.123435974121094,-62.44807052612305,Left
2183.573974609375,17137,1,1772.0,1764.0,1755.0,1743.0,0.0,1751.0,1763.0,1747.0,-128.81117248535156,-12.123435974121094,-62.44807052612305,Left
2185.573974609375,17137,1,1704.0,1765.0,1753.0,1755.0,0.0,1752.0,1752.0,1750.0,-128.81117248535156,-12.123435974121094,-62.44807052612305,Left
2187.573974609375,17137,1,1727.0,1780.0,1755.0,1757.0,0.0,1749.0,1758.0,1753.0,-128.81117248535156,-12.123435974121094,-62.44807052612305,Left
2189.22216796875,17138,1,1733.0,1770.0,1751.0,1747.0,0.0,1753.0,1759.0,1751.0,-128.81117248535156,-12.123435974121094,-62.44807052612305,Left
2191.22216796875,17138,1,1753.0,1773.0,1755.0,1752.0,0.0,1743.0,1757.0,1748.0,-128.81117248535156,-12.123435974121094,-62.44807052612305,Left
2193.22216796875,17138,1,1749.0,1764.0,1757.0,1764.0,0.0,1743.0,1763.0,1751.0,-128.81117248535156,-12.123435974121094,-62.44807052612305,Left
2195.22216796875,17138,1,1747.0,1753.0,1756.0,1757.0,2649.0,1749.0,1759.0,1747.0,-128.81117248535156,-12.123435974121094,-62.44807052612305,Left
2197.22216796875,17138,1,1746.0,1747.0,1753.0,1763.0,3791.0,1752.0,1759.0,1748.0,-128.81117248535156,-12.123435974121094,-62.44807052612305,Left
2208.643310546875,17139,1,1756.0,1747.0,1751.0,1753.0,3785.0,1753.0,1762.0,1753.0,-128.81117248535156,-12.123435974121094,-62.44807052612305,Left
2210.643310546875,17139,1,1767.0,1749.0,1755.0,1755.0,3794.0,1751.0,1758.0,1750.0,-128.81117248535156,-12.123435974121094,-62.44807052612305,Left
2212.643310546875,17139,1,1748.0,1759.0,1756.0,1752.0,2198.0,1742.0,1759.0,1749.0,-128.81117248535156,-12.123435974121094,-62.44807052612305,Left
2214.643310546875,17139,1,1765.0,1771.0,1755.0,1755.0,0.0,1746.0,1756.0,1748.0,-128.81117248535156,-12.123435974121094,-62.44807052612305,Left
2216.643310546875,17139,1,1747.0,1775.0,1750.0,1754.0,0.0,1753.0,1753.0,1749.0,-128.81117248535156,-12.123435974121094,-62.44807052612305,Left
2221.7353515625,17140,1,1757.0,1765.0,1755.0,1757.0,1967.0,1753.0,1755.0,1748.0,-128.81117248535156,-12.123435974121094,-62.44807052612305,Left
2223.7353515625,17140,1,1767.0,1769.0,1749.0,1755.0,3791.0,1752.0,1763.0,1753.0,-128.81117248535156,-12.123435974121094,-62.44807052612305,Left
2225.7353515625,17140,1,1765.0,1767.0,1753.0,1752.0,3791.0,1751.0,1762.0,1755.0,-128.81117248535156,-12.123435974121094,-62.44807052612305,Left
2227.7353515625,17140,1,1768.0,1757.0,1757.0,1759.0,3795.0,1750.0,1763.0,1741.0,-128.81117248535156,-12.123435974121094,-62.44807052612305,Left
2229.7353515625,17140,1,1743.0,1741.0,1762.0,1757.0,3795.0,1752.0,1764.0,1751.0,-128.81117248535156,-12.123435974121094,-62.44807052612305,Left
2222.510986328125,17141,1,1757.0,1739.0,1757.0,1752.0,3796.0,1751.0,1752.0,1743.0,-128.81117248535156,-12.123435974121094,-62.44807052612305,Left
2224.510986328125,17141,1,1757.0,1748.0,1753.0,1757.0,1672.0,1751.0,1765.0,1747.0,-128.81117248535156,-12.123435974121094,-62.44807052612305,Left
2226.510986328125,17141,1,1773.0,1757.0,1753.0,1756.0,0.0,1753.0,1757.0,1746.0,-128.81117248535156,-12.123435974121094,-62.44807052612305,Left
2228.510986328125,17141,1,1752.0,1769.0,1756.0,1756.0,0.0,1746.0,1758.0,1749.0,-128.81117248535156,-12.123435974121094,-62.44807052612305,Left
2230.510986328125,17141,1,1749.0,1769.0,1756.0,1759.0,1959.0,1751.0,1755.0,1749.0,-128.81117248535156,-12.123435974121094,-62.44807052612305,Left
2237.712158203125,17142,1,1743.0,1764.0,1757.0,1751.0,2459.0,1753.0,1759.0,1753.0,-128.81117248535156,-12.123435974121094,-62.44807052612305,Left
2239.712158203125,17142,1,1751.0,1771.0,1753.0,1752.0,2845.0,1749.0,1762.0,1751.0,-128.81117248535156,-12.123435974121094,-62.44807052612305,Left
2241.712158203125,17142,1,1763.0,1763.0,1758.0,1763.0,3035.0,1752.0,1758.0,1750.0,-128.82203674316406,-12.098109245300293,-62.45867919921875,Left
2243.712158203125,17142,1,1759.0,1753.0,1759.0,1751.0,2962.0,1752.0,1763.0,1751.0,-128.82203674316406,-12.098109245300293,-62.45867919921875,Left
2245.712158203125,17142,1,1765.0,1749.0,1756.0,1758.0,1021.0,1755.0,1765.0,1748.0,-128.82203674316406,-12.098109245300293,-62.45867919921875,Left
2267.35107421875,17143,1,1769.0,1743.0,1744.0,1754.0,0.0,1752.0,1762.0,1752.0,-128.82203674316406,-12.098109245300293,-62.45867919921875,Left
2269.35107421875,17143,1,1769.0,1755.0,1753.0,1753.0,0.0,1743.0,1762.0,1741.0,-128.82203674316406,-12.098109245300293,-62.45867919921875,Left
2271.35107421875,17143,1,1770.0,1755.0,1757.0,1755.0,0.0,1751.0,1757.0,1749.0,-128.82203674316406,-12.098109245300293,-62.45867919921875,Left
2273.35107421875,17143,1,1766.0,1770.0,1755.0,1756.0,0.0,1749.0,1761.0,1750.0,-128.82203674316406,-12.098109245300293,-62.45867919921875,Left
2275.35107421875,17143,1,1763.0,1772.0,1757.0,1750.0,2504.0,1751.0,1753.0,1749.0,-128.82203674316406,-12.098109245300293,-62.45867919921875,Left
2268.342041015625,17144,1,1735.0,1769.0,1753.0,1756.0,2264.0,1751.0,1759.0,1749.0,-128.82203674316406,-12.098109245300293,-62.45867919921875,Left
2270.342041015625,17144,1,1759.0,1755.0,1756.0,1764.0,2520.0,1749.0,1752.0,1746.0,-128.82203674316406,-12.098109245300293,-62.45867919921875,Left
2272.342041015625,17144,1,1755.0,1762.0,1759.0,1762.0,3512.0,1747.0,1763.0,1750.0,-128.82203674316406,-12.098109245300293,-62.45867919921875,Left
2274.342041015625,17144,1,1755.0,1755.0,1755.0,1758.0,3800.0,1752.0,1759.0,1755.0,-128.82203674316406,-12.098109245300293,-62.45867919921875,Left
2276.342041015625,17144,1,1770.0,1754.0,1759.0,1762.0,3801.0,1753.0,1764.0,1754.0,-128.82203674316406,-12.098109245300293,-62.45867919921875,Left
2268.78125,17145,1,1755.0,1743.0,1759.0,1759.0,1449.0,1746.0,1763.0,1748.0,-128.82203674316406,-12.098109245300293,-62.45867919921875,Left
2270.78125,17145,1,1759.0,1745.0,1747.0,1757.0,0.0,1751.0,1759.0,1749.0,-128.82203674316406,-12.098109245300293,-62.45867919921875,Left
2272.78125,17145,1,1749.0,1763.0,1757.0,1752.0,0.0,1753.0,1753.0,1749.0,-128.82203674316406,-12.098109245300293,-62.45867919921875,Left
2274.78125,17145,1,1737.0,1771.0,1756.0,1758.0,1.0,1747.0,1756.0,1743.0,-128.82203674316406,-12.098109245300293,-62.45867919921875,Left
2276.78125,17145,1,1753.0,1771.0,1755.0,1756.0,0.0,1751.0,1753.0,1749.0,-128.82203674316406,-12.098109245300293,-62.45867919921875,Left
2280.7900390625,17146,1,1767.0,1757.0,1755.0,1757.0,1133.0,1754.0,1759.0,1749.0,-128.82203674316406,-12.098109245300293,-62.45867919921875,Left
2282.7900390625,17146,1,1777.0,1769.0,1758.0,1755.0,3800.0,1747.0,1751.0,1747.0,-128.82203674316406,-12.098109245300293,-62.45867919921875,Left
2284.7900390625,17146,1,1655.0,1768.0,1756.0,1757.0,3795.0,1745.0,1753.0,1752.0,-128.82203674316406,-12.098109245300293,-62.45867919921875,Left
2286.7900390625,17146,1,1704.0,1759.0,1756.0,1758.0,3791.0,1751.0,1763.0,1741.0,-128.82203674316406,-12.098109245300293,-62.45867919921875,Left
2288.7900390625,17146,1,1708.0,1747.0,1757.0,1754.0,3798.0,1747.0,1763.0,1750.0,-128.82203674316406,-12.098109245300293,-62.45867919921875,Left
2294.67236328125,17147,1,1726.0,1747.0,1763.0,1756.0,3431.0,1747.0,1758.0,1741.0,-128.82203674316406,-12.098109245300293,-62.45867919921875,Left
2296.67236328125,17147,1,1747.0,1751.0,1756.0,1756.0,0.0,1743.0,1763.0,1751.0,-128.82203674316406,-12.098109245300293,-62.45867919921875,Left
2298.67236328125,17147,1,1755.0,1763.0,1753.0,1749.0,0.0,1753.0,1759.0,1751.0,-128.82203674316406,-12.098109245300293,-62.45867919921875,Left
2300.67236328125,17147,1,1765.0,1774.0,1757.0,1759.0,0.0,1752.0,1758.0,1743.0,-128.82203674316406,-12.098109245300293,-62.45867919921875,Left
2302.67236328125,17147,1,1759.0,1773.0,1755.0,1757.0,0.0,1749.0,1763.0,1751.0,-128.82203674316406,-12.098109245300293,-62.45867919921875,Left
2295.146240234375,17148,1,1753.0,1772.0,1762.0,1755.0,0.0,1747.0,1763.0,1741.0,-128.82203674316406,-12.098109245300293,-62.45867919921875,Left
2297.146240234375,17148,1,1775.0,1765.0,1753.0,1757.0,3787.0,1753.0,1763.0,1750.0,-128.82203674316406,-12.098109245300293,-62.45867919921875,Left
2299.146240234375,17148,1,1745.0,1752.0,1757.0,1759.0,3784.0,1745.0,1763.0,1746.0,-128.82203674316406,-12.098109245300293,-62.45867919921875,Left
2301.146240234375,17148,1,1756.0,1753.0,1757.0,1765.0,3789.0,1749.0,1759.0,1748.0,-128.82203674316406,-12.098109245300293,-62.45867919921875,Left
2303.146240234375,17148,1,1755.0,1749.0,1755.0,1763.0,3789.0,1751.0,1759.0,1741.0,-128.8312530517578,-12.08188247680664,-62.463356018066406,Left
2323.63623046875,17149,1,1757.0,1749.0,1755.0,1757.0,3784.0,1751.0,1763.0,1749.0,-128.8312530517578,-12.08188247680664,-62.463356018066406,Left
2325.63623046875,17149,1,1771.0,1749.0,1755.0,1764.0,3795.0,1751.0,1762.0,1741.0,-128.8312530517578,-12.08188247680664,-62.463356018066406,Left
2327.63623046875,17149,1,1756.0,1768.0,1753.0,1754.0,0.0,1752.0,1763.0,1752.0,-128.8312530517578,-12.08188247680664,-62.463356018066406,Left
2329.63623046875,17149,1,1747.0,1768.0,1757.0,1753.0,0.0,1751.0,1751.0,1746.0,-128.8312530517578,-12.08188247680664,-62.463356018066406,Left
2331.63623046875,17149,1,1752.0,1781.0,1755.0,1757.0,0.0,1753.0,1762.0,1753.0,-128.8312530517578,-12.08188247680664,-62.463356018066406,Left
2324.653076171875,17150,1,1763.0,1752.0,1751.0,1761.0,0.0,1751.0,1758.0,1749.0,-128.8312530517578,-12.08188247680664,-62.463356018066406,Left
2326.653076171875,17150,1,1778.0,1766.0,1756.0,1756.0,0.0,1753.0,1763.0,1748.0,-128.8312530517578,-12.08188247680664,-62.463356018066406,Left
2328.653076171875,17150,1,1765.0,1751.0,1757.0,1757.0,0.0,1753.0,1763.0,1746.0,-128.8312530517578,-12.08188247680664,-62.463356018066406,Left
2330.653076171875,17150,1,1763.0,1752.0,1755.0,1759.0,1194.0,1753.0,1755.0,1742.0,-128.8312530517578,-12.08188247680664,-62.463356018066406,Left
2332.653076171875,17150,1,1747.0,1751.0,1761.0,1755.0,3785.0,1745.0,1763.0,1746.0,-128.8312530517578,-12.08188247680664,-62.463356018066406,Left
2325.2392578125,17151,1,1765.0,1749.0,1757.0,1763.0,3775.0,1751.0,1763.0,1748.0,-128.8312530517578,-12.08188247680664,-62.463356018066406,Left
2327.2392578125,17151,1,1771.0,1756.0,1755.0,1755.0,3797.0,1747.0,1759.0,1745.0,-128.8312530517578,-12.08188247680664,-62.463356018066406,Left
2329.2392578125,17151,1,1748.0,1757.0,1753.0,1755.0,0.0,1751.0,1752.0,1749.0,-128.8312530517578,-12.08188247680664,-62.463356018066406,Left
2331.2392578125,17151,1,1788.0,1773.0,1754.0,1751.0,0.0,1753.0,1758.0,1748.0,-128.8312530517578,-12.08188247680664,-62.463356018066406,Left
2333.2392578125,17151,1,1759.0,1779.0,1755.0,1757.0,0.0,1753.0,1763.0,1747.0,-128.8312530517578,-12.08188247680664,-62.463356018066406,Left
2330.795166015625,17152,1,1736.0,1766.0,1756.0,1758.0,0.0,1751.0,1758.0,1750.0,-128.8312530517578,-12.08188247680664,-62.463356018066406,Left
2332.795166015625,17152,1,1752.0,1769.0,1749.0,1759.0,0.0,1742.0,1751.0,1743.0,-128.8312530517578,-12.08188247680664,-62.463356018066406,Left
2334.795166015625,17152,1,1720.0,1769.0,1754.0,1742.0,3791.0,1742.0,1757.0,1750.0,-128.8312530517578,-12.08188247680664,-62.463356018066406,Left
2336.795166015625,17152,1,1693.0,1757.0,1755.0,1757.0,3787.0,1751.0,1764.0,1743.0,-128.8312530517578,-12.08188247680664,-62.463356018066406,Left
2338.795166015625,17152,1,1741.0,1751.0,1763.0,1759.0,3787.0,1752.0,1755.0,1747.0,-128.8312530517578,-12.08188247680664,-62.463356018066406,Left
2339.0361328125,17153,1,1755.0,1747.0,1750.0,1758.0,3790.0,1737.0,1757.0,1747.0,-128.8312530517578,-12.08188247680664,-62.463356018066406,Left
2341.0361328125,17153,1,1751.0,1749.0,1755.0,1755.0,3791.0,1752.0,1759.0,1748.0,-128.8312530517578,-12.08188247680664,-62.463356018066406,Left
2343.0361328125,17153,1,1756.0,1764.0,1755.0,1747.0,3463.0,1753.0,1759.0,1751.0,-128.8312530517578,-12.08188247680664,-62.463356018066406,Left
2345.0361328125,17153,1,1771.0,1775.0,1755.0,1754.0,0.0,1749.0,1758.0,1750.0,-128.8312530517578,-12.08188247680664,-62.463356018066406,Left
2347.0361328125,17153,1,1753.0,1773.0,1758.0,1755.0,0.0,1751.0,1755.0,1751.0,-128.8312530517578,-12.08188247680664,-62.463356018066406,Left
2351.01318359375,17154,1,1749.0,1754.0,1755.0,1755.0,0.0,1773.0,1755.0,1743.0,-128.8312530517578,-12.08188247680664,-62.463356018066406,Left
2353.01318359375,17154,1,1763.0,1765.0,1759.0,1759.0,3180.0,1751.0,1759.0,1752.0,-128.8312530517578,-12.08188247680664,-62.463356018066406,Left
2355.01318359375,17154,1,1766.0,1758.0,1751.0,1762.0,3791.0,1752.0,1753.0,1751.0,-128.8312530517578,-12.08188247680664,-62.463356018066406,Left
2357.01318359375,17154,1,1776.0,1752.0,1755.0,1756.0,3795.0,1752.0,1763.0,1751.0,-128.8312530517578,-12.08188247680664,-62.463356018066406,Left
2359.01318359375,17154,1,1770.0,1752.0,1755.0,1757.0,3775.0,1751.0,1763.0,1743.0,-128.8312530517578,-12.08188247680664,-62.463356018066406,Left
2375.29541015625,17155,1,1756.0,1745.0,1755.0,1763.0,3796.0,1753.0,1755.0,1749.0,-128.8312530517578,-12.08188247680664,-62.463356018066406,Left
2377.29541015625,17155,1,1791.0,1741.0,1755.0,1759.0,3800.0,1753.0,1763.0,1751.0,-128.82493591308594,-12.081270217895508,-62.457027435302734,Left
2379.29541015625,17155,1,1767.0,1768.0,1753.0,1749.0,0.0,1753.0,1754.0,1751.0,-128.82493591308594,-12.081270217895508,-62.457027435302734,Left
2381.29541015625,17155,1,1756.0,1769.0,1755.0,1753.0,0.0,1749.0,1755.0,1747.0,-128.82493591308594,-12.081270217895508,-62.457027435302734,Left
2383.29541015625,17155,1,1753.0,1773.0,1755.0,1754.0,0.0,1749.0,1757.0,1749.0,-128.82493591308594,-12.081270217895508,-62.457027435302734,Left
2375.980224609375,17156,1,1743.0,1769.0,1752.0,1757.0,0.0,1750.0,1751.0,1751.0,-128.82493591308594,-12.081270217895508,-62.457027435302734,Left
2377.980224609375,17156,1,1751.0,1767.0,1757.0,1756.0,1055.0,1753.0,1759.0,1749.0,-128.82493591308594,-12.081270217895508,-62.457027435302734,Left
2379.980224609375,17156,1,1765.0,1755.0,1762.0,1757.0,3797.0,1751.0,1759.0,1753.0,-128.82493591308594,-12.081270217895508,-62.457027435302734,Left
2381.980224609375,17156,1,1773.0,1747.0,1758.0,1763.0,3789.0,1749.0,1757.0,1754.0,-128.82493591308594,-12.081270217895508,-62.457027435302734,Left
2383.980224609375,17156,1,1755.0,1752.0,1753.0,1764.0,3793.0,1753.0,1767.0,1741.0,-128.82493591308594,-12.081270217895508,-62.457027435302734,Left
2380.39697265625,17157,1,1855.0,1711.0,1755.0,1759.0,3800.0,1753.0,1763.0,1751.0,-128.82493591308594,-12.081270217895508,-62.457027435302734,Left
2382.39697265625,17157,1,1712.0,1753.0,1754.0,1758.0,0.0,1751.0,1762.0,1747.0,-128.82493591308594,-12.081270217895508,-62.457027435302734,Left
2384.39697265625,17157,1,1733.0,1763.0,1749.0,1756.0,0.0,1752.0,1763.0,1747.0,-128.82493591308594,-12.081270217895508,-62.457027435302734,Left
2386.39697265625,17157,1,1723.0,1769.0,1751.0,1751.0,0.0,1752.0,1759.0,1749.0,-128.82493591308594,-12.081270217895508,-62.457027435302734,Left
2388.39697265625,17157,1,1751.0,1765.0,1755.0,1757.0,0.0,1751.0,1763.0,1742.0,-128.82493591308594,-12.081270217895508,-62.457027435302734,Left
2397.924072265625,17158,1,1752.0,1758.0,1753.0,1759.0,939.0,1753.0,1759.0,1749.0,-128.82493591308594,-12.081270217895508,-62.457027435302734,Left
2399.924072265625,17158,1,1775.0,1767.0,1755.0,1762.0,3799.0,1751.0,1753.0,1751.0,-128.82493591308594,-12.081270217895508,-62.457027435302734,Left
2401.924072265625,17158,1,1741.0,1755.0,1755.0,1755.0,3795.0,1753.0,1761.0,1751.0,-128.82493591308594,-12.081270217895508,-62.457027435302734,Left
2403.924072265625,17158,1,1747.0,1755.0,1757.0,1756.0,3790.0,1743.0,1759.0,1749.0,-128.82493591308594,-12.081270217895508,-62.457027435302734,Left
2405.924072265625,17158,1,1751.0,1750.0,1755.0,1755.0,3787.0,1752.0,1755.0,1751.0,-128.82493591308594,-12.081270217895508,-62.457027435302734,Left
2414.37841796875,17159,1,1764.0,1749.0,1756.0,1763.0,2283.0,1753.0,1759.0,1751.0,-128.82493591308594,-12.081270217895508,-62.457027435302734,Left
2416.37841796875,17159,1,1765.0,1749.0,1754.0,1751.0,0.0,1751.0,1759.0,1742.0,-128.82493591308594,-12.081270217895508,-62.457027435302734,Left
2418.37841796875,17159,1,1772.0,1753.0,1752.0,1749.0,0.0,1750.0,1757.0,1749.0,-128.82493591308594,-12.081270217895508,-62.457027435302734,Left
2420.37841796875,17159,1,1751.0,1769.0,1756.0,1749.0,8.0,1742.0,1756.0,1749.0,-128.82493591308594,-12.081270217895508,-62.457027435302734,Left
2422.37841796875,17159,1,2156.0,1725.0,1751.0,1764.0,0.0,1753.0,1757.0,1748.0,-128.82493591308594,-12.081270217895508,-62.457027435302734,Left
2428.834228515625,17160,1,1639.0,1780.0,1751.0,1754.0,615.0,1745.0,1753.0,1749.0,-128.82493591308594,-12.081270217895508,-62.457027435302734,Left
2430.834228515625,17160,1,1691.0,1767.0,1753.0,1759.0,3785.0,1749.0,1763.0,1751.0,-128.82493591308594,-12.081270217895508,-62.457027435302734,Left
2432.834228515625,17160,1,1711.0,1763.0,1757.0,1757.0,3793.0,1749.0,1763.0,1749.0,-128.82493591308594,-12.081270217895508,-62.457027435302734,Left
2434.834228515625,17160,1,1747.0,1755.0,1757.0,1754.0,3789.0,1747.0,1762.0,1752.0,-128.82493591308594,-12.081270217895508,-62.457027435302734,Left
2436.834228515625,17160,1,1757.0,1752.0,1756.0,1755.0,3785.0,1751.0,1755.0,1752.0,-128.82493591308594,-12.081270217895508,-62.457027435302734,Left
2430.39013671875,17161,1,1811.0,1749.0,1753.0,1759.0,1403.0,1752.0,1763.0,1751.0,-128.82493591308594,-12.081270217895508,-62.457027435302734,Left
2432.39013671875,17161,1,1743.0,1741.0,1755.0,1755.0,0.0,1745.0,1757.0,1750.0,-128.82493591308594,-12.081270217895508,-62.457027435302734,Left
2434.39013671875,17161,1,1767.0,1768.0,1757.0,1749.0,0.0,1749.0,1763.0,1748.0,-128.82493591308594,-12.081270217895508,-62.457027435302734,Left
2436.39013671875,17161,1,1741.0,1771.0,1751.0,1751.0,0.0,1753.0,1757.0,1749.0,-128.84771728515625,-12.082807540893555,-62.44057083129883,Left
2438.39013671875,17161,1,1767.0,1775.0,1755.0,1753.0,459.0,1753.0,1755.0,1748.0,-128.84771728515625,-12.082807540893555,-62.44057083129883,Left
2473.81396484375,17162,1,1767.0,1767.0,1755.0,1757.0,3799.0,1753.0,1757.0,1750.0,-128.84771728515625,-12.082807540893555,-62.44057083129883,Left
2475.81396484375,17162,1,1772.0,1769.0,1755.0,1754.0,3799.0,1753.0,1762.0,1741.0,-128.84771728515625,-12.082807540893555,-62.44057083129883,Left
2477.81396484375,17162,1,1753.0,1763.0,1758.0,1755.0,3797.0,1751.0,1763.0,1751.0,-128.84771728515625,-12.082807540893555,-62.44057083129883,Left
2479.81396484375,17162,1,1753.0,1749.0,1757.0,1759.0,3643.0,1751.0,1759.0,1745.0,-128.84771728515625,-12.082807540893555,-62.44057083129883,Left
2481.81396484375,17162,1,1757.0,1752.0,1757.0,1751.0,2829.0,1752.0,1763.0,1751.0,-128.84771728515625,-12.082807540893555,-62.44057083129883,Left
2474.707275390625,17163,1,1770.0,1741.0,1767.0,1753.0,231.0,1751.0,1762.0,1743.0,-128.84771728515625,-12.082807540893555,-62.44057083129883,Left
2476.707275390625,17163,1,1763.0,1755.0,1750.0,1757.0,0.0,1751.0,1763.0,1753.0,-128.84771728515625,-12.082807540893555,-62.44057083129883,Left
2478.707275390625,17163,1,1759.0,1767.0,1757.0,1755.0,0.0,1745.0,1762.0,1752.0,-128.84771728515625,-12.082807540893555,-62.44057083129883,Left
2480.707275390625,17163,1,1971.0,1755.0,1752.0,1752.0,0.0,1753.0,1753.0,1747.0,-128.84771728515625,-12.082807540893555,-62.44057083129883,Left
2482.707275390625,17163,1,1781.0,1773.0,1755.0,1759.0,2021.0,1742.0,1757.0,1748.0,-128.84771728515625,-12.082807540893555,-62.44057083129883,Left
2475.469970703125,17164,1,1719.0,1768.0,1755.0,1757.0,3145.0,1751.0,1758.0,1743.0,-128.84771728515625,-12.082807540893555,-62.44057083129883,Left
2477.469970703125,17164,1,1765.0,1775.0,1762.0,1757.0,3801.0,1749.0,1759.0,1749.0,-128.84771728515625,-12.082807540893555,-62.44057083129883,Left
2479.469970703125,17164,1,1740.0,1764.0,1755.0,1759.0,3799.0,1751.0,1763.0,1745.0,-128.84771728515625,-12.082807540893555,-62.44057083129883,Left
2481.469970703125,17164,1,1767.0,1755.0,1759.0,1751.0,1837.0,1742.0,1759.0,1751.0,-128.84771728515625,-12.082807540893555,-62.44057083129883,Left
2483.469970703125,17164,1,1755.0,1753.0,1757.0,1758.0,1774.0,1754.0,1763.0,1754.0,-128.84771728515625,-12.082807540893555,-62.44057083129883,Left
2476.166259765625,17165,1,1767.0,1749.0,1755.0,1760.0,443.0,1751.0,1762.0,1749.0,-128.84771728515625,-12.082807540893555,-62.44057083129883,Left
2478.166259765625,17165,1,1765.0,1749.0,1754.0,1759.0,0.0,1743.0,1761.0,1753.0,-128.84771728515625,-12.082807540893555,-62.44057083129883,Left
2480.166259765625,17165,1,1764.0,1767.0,1755.0,1755.0,0.0,1751.0,1753.0,1749.0,-128.84771728515625,-12.082807540893555,-62.44057083129883,Left
2482.166259765625,17165,1,1775.0,1768.0,1753.0,1751.0,0.0,1752.0,1757.0,1749.0,-128.84771728515625,-12.082807540893555,-62.44057083129883,Left
2484.166259765625,17165,1,1773.0,1768.0,1759.0,1755.0,2507.0,1749.0,1758.0,1748.0,-128.84771728515625,-12.082807540893555,-62.44057083129883,Left
2476.774169921875,17166,1,1743.0,1765.0,1757.0,1754.0,3351.0,1742.0,1761.0,1751.0,-128.84771728515625,-12.082807540893555,-62.44057083129883,Left
2478.774169921875,17166,1,1756.0,1763.0,1749.0,1759.0,3785.0,1743.0,1755.0,1747.0,-128.84771728515625,-12.082807540893555,-62.44057083129883,Left
2480.774169921875,17166,1,1740.0,1738.0,1753.0,1754.0,3789.0,1746.0,1764.0,1745.0,-128.84771728515625,-12.082807540893555,-62.44057083129883,Left
2482.774169921875,17166,1,1749.0,1751.0,1757.0,1758.0,2125.0,1753.0,1763.0,1747.0,-128.84771728515625,-12.082807540893555,-62.44057083129883,Left
2484.774169921875,17166,1,1767.0,1733.0,1752.0,1747.0,1827.0,1752.0,1763.0,1751.0,-128.84771728515625,-12.082807540893555,-62.44057083129883,Left
2482.001220703125,17167,1,1767.0,1747.0,1753.0,1779.0,538.0,1753.0,1762.0,1747.0,-128.84771728515625,-12.082807540893555,-62.44057083129883,Left
2484.001220703125,17167,1,1875.0,1740.0,1757.0,1764.0,0.0,1747.0,1763.0,1757.0,-128.84771728515625,-12.082807540893555,-62.44057083129883,Left
2486.001220703125,17167,1,1773.0,1802.0,1765.0,1771.0,0.0,1752.0,1753.0,1756.0,-128.84771728515625,-12.082807540893555,-62.44057083129883,Left
2488.001220703125,17167,1,1755.0,1799.0,1765.0,1762.0,1135.0,1746.0,1759.0,1750.0,-128.84771728515625,-12.082807540893555,-62.44057083129883,Left
2490.001220703125,17167,1,1759.0,1755.0,1757.0,1755.0,2379.0,1745.0,1762.0,1751.0,-128.84771728515625,-12.082807540893555,-62.44057083129883,Left
2500.0361328125,17168,1,1755.0,1788.0,1767.0,1813.0,2395.0,1746.0,1754.0,1753.0,-128.84771728515625,-12.082807540893555,-62.44057083129883,Left
2502.0361328125,17168,1,1783.0,1769.0,1755.0,1798.0,3221.0,1742.0,1763.0,1750.0,-128.8980712890625,-12.05510139465332,-62.399051666259766,Left
2504.0361328125,17168,1,1739.0,1815.0,1757.0,1820.0,3167.0,1751.0,1755.0,1763.0,-128.8980712890625,-12.05510139465332,-62.399051666259766,Left
2506.0361328125,17168,1,1771.0,1804.0,1763.0,1746.0,2355.0,1749.0,1759.0,1743.0,-128.8980712890625,-12.05510139465332,-62.399051666259766,Left
2508.0361328125,17168,1,1727.0,1669.0,1717.0,1605.0,1827.0,1751.0,1758.0,1711.0,-128.8980712890625,-12.05510139465332,-62.399051666259766,Left
2517.795166015625,17169,1,1705.0,1653.0,1728.0,1641.0,782.0,1751.0,1755.0,1715.0,-128.8980712890625,-12.05510139465332,-62.399051666259766,Left
2519.795166015625,17169,1,1703.0,1645.0,1725.0,1747.0,0.0,1753.0,1762.0,1754.0,-128.8980712890625,-12.05510139465332,-62.399051666259766,Left
2521.795166015625,17169,1,1781.0,1753.0,1759.0,1799.0,0.0,1752.0,1759.0,1752.0,-128.8980712890625,-12.05510139465332,-62.399051666259766,Left
2523.795166015625,17169,1,1781.0,1785.0,1768.0,1779.0,1496.0,1751.0,1756.0,1767.0,-128.8980712890625,-12.05510139465332,-62.399051666259766,Left
2525.795166015625,17169,1,1773.0,1845.0,1769.0,1783.0,2699.0,1750.0,1753.0,1765.0,-128.8980712890625,-12.05510139465332,-62.399051666259766,Left
2529.958251953125,17170,1,1762.0,1819.0,1747.0,1763.0,2748.0,1751.0,1762.0,1736.0,-128.8980712890625,-12.05510139465332,-62.399051666259766,Left
2531.958251953125,17170,1,1758.0,1849.0,1755.0,1801.0,3012.0,1751.0,1759.0,1765.0,-128.8980712890625,-12.05510139465332,-62.399051666259766,Left
2533.958251953125,17170,1,1758.0,1789.0,1763.0,1781.0,2649.0,1752.0,1759.0,1755.0,-128.8980712890625,-12.05510139465332,-62.399051666259766,Left
2535.958251953125,17170,1,1763.0,1815.0,1751.0,1759.0,2421.0,1751.0,1763.0,1747.0,-128.8980712890625,-12.05510139465332,-62.399051666259766,Left
2537.958251953125,17170,1,1764.0,1675.0,1754.0,1720.0,2007.0,1749.0,1755.0,1757.0,-128.8980712890625,-12.05510139465332,-62.399051666259766,Left
2530.670166015625,17171,1,1727.0,1689.0,1769.0,1723.0,757.0,1741.0,1753.0,1757.0,-128.8980712890625,-12.05510139465332,-62.399051666259766,Left
2532.670166015625,17171,1,1765.0,1706.0,1759.0,1763.0,0.0,1751.0,1759.0,1753.0,-128.8980712890625,-12.05510139465332,-62.399051666259766,Left
2534.670166015625,17171,1,1752.0,1768.0,1765.0,1748.0,0.0,1752.0,1757.0,1749.0,-128.8980712890625,-12.05510139465332,-62.399051666259766,Left
2536.670166015625,17171,1,1735.0,1815.0,1752.0,1783.0,0.0,1752.0,1755.0,1741.0,-128.8980712890625,-12.05510139465332,-62.399051666259766,Left
2538.670166015625,17171,1,1753.0,1803.0,1751.0,1754.0,2614.0,1751.0,1759.0,1735.0,-128.8980712890625,-12.05510139465332,-62.399051666259766,Left
2539.419189453125,17172,1,1719.0,1816.0,1724.0,1717.0,3797.0,1751.0,1757.0,1721.0,-128.8980712890625,-12.05510139465332,-62.399051666259766,Left
2541.419189453125,17172,1,1742.0,1775.0,1748.0,1765.0,3800.0,1751.0,1756.0,1753.0,-128.8980712890625,-12.05510139465332,-62.399051666259766,Left
2543.419189453125,17172,1,1740.0,1725.0,1759.0,1769.0,3786.0,1749.0,1762.0,1747.0,-128.8980712890625,-12.05510139465332,-62.399051666259766,Left
2545.419189453125,17172,1,1785.0,1691.0,1751.0,1742.0,3795.0,1743.0,1763.0,1763.0,-128.8980712890625,-12.05510139465332,-62.399051666259766,Left
2547.419189453125,17172,1,1765.0,1735.0,1768.0,1783.0,3797.0,1751.0,1755.0,1755.0,-128.8980712890625,-12.05510139465332,-62.399051666259766,Left
2540.1630859375,17173,1,1839.0,1725.0,1779.0,1779.0,887.0,1749.0,1757.0,1753.0,-128.8980712890625,-12.05510139465332,-62.399051666259766,Left
2542.1630859375,17173,1,1757.0,1767.0,1765.0,1788.0,0.0,1751.0,1762.0,1749.0,-128.8980712890625,-12.05510139465332,-62.399051666259766,Left
2544.1630859375,17173,1,1699.0,1823.0,1754.0,1812.0,0.0,1749.0,1755.0,1751.0,-128.8980712890625,-12.05510139465332,-62.399051666259766,Left
2546.1630859375,17173,1,1757.0,1813.0,1763.0,1789.0,318.0,1743.0,1757.0,1755.0,-128.8980712890625,-12.05510139465332,-62.399051666259766,Left
2548.1630859375,17173,1,2219.0,1786.0,1765.0,1773.0,3135.0,1746.0,1763.0,1753.0,-128.8980712890625,-12.05510139465332,-62.399051666259766,Left
2580.09228515625,17174,1,1636.0,1685.0,1723.0,1641.0,1524.0,1754.0,1759.0,1742.0,-128.8980712890625,-12.05510139465332,-62.399051666259766,Left
2582.09228515625,17174,1,1655.0,1656.0,1757.0,1699.0,1242.0,1751.0,1759.0,1746.0,-128.8980712890625,-12.05510139465332,-62.399051666259766,Left
2584.09228515625,17174,1,1696.0,1751.0,1755.0,1782.0,3751.0,1750.0,1763.0,1723.0,-128.8980712890625,-12.05510139465332,-62.399051666259766,Left
2586.09228515625,17174,1,1738.0,1816.0,1759.0,1810.0,2963.0,1743.0,1754.0,1769.0,-128.1090087890625,-11.907965660095215,-62.75837326049805,Left
2588.09228515625,17174,1,1771.0,1899.0,1759.0,1813.0,2954.0,1753.0,1763.0,1763.0,-128.1090087890625,-11.907965660095215,-62.75837326049805,Left
2580.758056640625,17175,1,1789.0,1771.0,1772.0,1763.0,666.0,1751.0,1759.0,1751.0,-128.1090087890625,-11.907965660095215,-62.75837326049805,Left
2582.758056640625,17175,1,1756.0,1655.0,1768.0,1735.0,421.0,1750.0,1761.0,1755.0,-128.1090087890625,-11.907965660095215,-62.75837326049805,Left
2584.758056640625,17175,1,1763.0,1704.0,1751.0,1695.0,0.0,1751.0,1759.0,1739.0,-128.1090087890625,-11.907965660095215,-62.75837326049805,Left
2586.758056640625,17175,1,1769.0,1809.0,1753.0,1771.0,0.0,1753.0,1757.0,1753.0,-128.1090087890625,-11.907965660095215,-62.75837326049805,Left
2588.758056640625,17175,1,1751.0,1759.0,1739.0,1699.0,1931.0,1753.0,1759.0,1723.0,-128.1090087890625,-11.907965660095215,-62.75837326049805,Left
2581.112060546875,17176,1,1753.0,1864.0,1753.0,1801.0,3797.0,1752.0,1757.0,1747.0,-128.1090087890625,-11.907965660095215,-62.75837326049805,Left
2583.112060546875,17176,1,1741.0,1589.0,1740.0,1624.0,3795.0,1753.0,1753.0,1725.0,-128.1090087890625,-11.907965660095215,-62.75837326049805,Left
2585.112060546875,17176,1,1752.0,1757.0,1763.0,1802.0,3789.0,1751.0,1763.0,1758.0,-128.1090087890625,-11.907965660095215,-62.75837326049805,Left
2587.112060546875,17176,1,1769.0,1800.0,1763.0,1783.0,3821.0,1751.0,1761.0,1749.0,-128.1090087890625,-11.907965660095215,-62.75837326049805,Left
2589.112060546875,17176,1,1770.0,1865.0,1765.0,1811.0,0.0,1752.0,1763.0,1757.0,-128.1090087890625,-11.907965660095215,-62.75837326049805,Left
2598.881103515625,17177,1,1749.0,1848.0,1751.0,1791.0,0.0,1750.0,1768.0,1736.0,-128.1090087890625,-11.907965660095215,-62.75837326049805,Left
2600.881103515625,17177,1,1773.0,1628.0,1752.0,1738.0,0.0,1751.0,1757.0,1753.0,-128.1090087890625,-11.907965660095215,-62.75837326049805,Left
2602.881103515625,17177,1,1725.0,1688.0,1768.0,1715.0,0.0,1747.0,1762.0,1756.0,-128.1090087890625,-11.907965660095215,-62.75837326049805,Left
2604.881103515625,17177,1,1715.0,1711.0,1765.0,1739.0,0.0,1750.0,1762.0,1751.0,-128.1090087890625,-11.907965660095215,-62.75837326049805,Left
2606.881103515625,17177,1,1737.0,1770.0,1769.0,1781.0,3791.0,1750.0,1755.0,1754.0,-128.1090087890625,-11.907965660095215,-62.75837326049805,Left
2599.3720703125,17178,1,1766.0,1792.0,1752.0,1751.0,3795.0,1751.0,1753.0,1747.0,-128.1090087890625,-11.907965660095215,-62.75837326049805,Left
2601.3720703125,17178,1,1719.0,1846.0,1723.0,1743.0,3798.0,1749.0,1759.0,1709.0,-128.1090087890625,-11.907965660095215,-62.75837326049805,Left
2603.3720703125,17178,1,1724.0,1819.0,1721.0,1721.0,3799.0,1749.0,1757.0,1733.0,-128.1090087890625,-11.907965660095215,-62.75837326049805,Left
2605.3720703125,17178,1,1755.0,1735.0,1757.0,1774.0,1595.0,1751.0,1757.0,1764.0,-128.1090087890625,-11.907965660095215,-62.75837326049805,Left
2607.3720703125,17178,1,1775.0,1721.0,1781.0,1751.0,1339.0,1748.0,1758.0,1773.0,-128.1090087890625,-11.907965660095215,-62.75837326049805,Left
2618.953125,17179,1,1781.0,1736.0,1767.0,1774.0,1549.0,1752.0,1759.0,1752.0,-128.1090087890625,-11.907965660095215,-62.75837326049805,Left
2620.953125,17179,1,1773.0,1797.0,1750.0,1779.0,0.0,1747.0,1763.0,1743.0,-128.1090087890625,-11.907965660095215,-62.75837326049805,Left
2622.953125,17179,1,1747.0,1707.0,1736.0,1678.0,483.0,1753.0,1758.0,1727.0,-128.1090087890625,-11.907965660095215,-62.75837326049805,Left
2624.953125,17179,1,1757.0,1736.0,1759.0,1743.0,2446.0,1751.0,1757.0,1747.0,-128.1090087890625,-11.907965660095215,-62.75837326049805,Left
2626.953125,17179,1,1775.0,1655.0,1751.0,1749.0,1342.0,1751.0,1753.0,1748.0,-128.1090087890625,-11.907965660095215,-62.75837326049805,Left
2634.143310546875,17180,1,1815.0,1705.0,1774.0,1787.0,1383.0,1752.0,1763.0,1771.0,-128.1090087890625,-11.907965660095215,-62.75837326049805,Left
2636.143310546875,17180,1,1725.0,1893.0,1782.0,1884.0,2587.0,1753.0,1765.0,1771.0,-128.1090087890625,-11.907965660095215,-62.75837326049805,Left
2638.143310546875,17180,1,1719.0,1945.0,1762.0,1863.0,3799.0,1751.0,1759.0,1743.0,-128.1090087890625,-11.907965660095215,-62.75837326049805,Left
2640.143310546875,17180,1,1736.0,1925.0,1733.0,1700.0,3786.0,1751.0,1764.0,1706.0,-128.1090087890625,-11.907965660095215,-62.75837326049805,Left
2642.143310546875,17180,1,1755.0,1653.0,1732.0,1633.0,3803.0,1747.0,1759.0,1737.0,-128.1090087890625,-11.907965660095215,-62.75837326049805,Left
2634.97509765625,17181,1,1769.0,1734.0,1759.0,1723.0,3790.0,1753.0,1762.0,1755.0,-128.1090087890625,-11.907965660095215,-62.75837326049805,Left
2636.97509765625,17181,1,1738.0,1694.0,1753.0,1733.0,3801.0,1751.0,1753.0,1735.0,-126.94217681884766,-11.423504829406738,-64.98385620117188,Left
2638.97509765625,17181,1,1756.0,1763.0,1769.0,1817.0,0.0,1751.0,1759.0,1763.0,-126.94217681884766,-11.423504829406738,-64.98385620117188,Left
2640.97509765625,17181,1,1833.0,1805.0,1766.0,1811.0,0.0,1746.0,1759.0,1759.0,-126.94217681884766,-11.423504829406738,-64.98385620117188,Left
2642.97509765625,17181,1,1762.0,1753.0,1757.0,1741.0,0.0,1745.0,1758.0,1751.0,-126.94217681884766,-11.423504829406738,-64.98385620117188,Left
2635.63916015625,17182,1,1739.0,1768.0,1764.0,1815.0,0.0,1751.0,1763.0,1755.0,-126.94217681884766,-11.423504829406738,-64.98385620117188,Left
2637.63916015625,17182,1,1765.0,1677.0,1768.0,1755.0,1337.0,1749.0,1762.0,1757.0,-126.94217681884766,-11.423504829406738,-64.98385620117188,Left
2639.63916015625,17182,1,1755.0,1817.0,1755.0,1785.0,2743.0,1751.0,1757.0,1741.0,-126.94217681884766,-11.423504829406738,-64.98385620117188,Left
2641.63916015625,17182,1,1741.0,1682.0,1741.0,1691.0,3795.0,1745.0,1759.0,1735.0,-126.94217681884766,-11.423504829406738,-64.98385620117188,Left
2643.63916015625,17182,1,1737.0,1811.0,1741.0,1759.0,3795.0,1751.0,1759.0,1739.0,-126.94217681884766,-11.423504829406738,-64.98385620117188,Left
2650.084228515625,17183,1,1775.0,1817.0,1756.0,1818.0,3795.0,1751.0,1759.0,1751.0,-126.94217681884766,-11.423504829406738,-64.98385620117188,Left
2652.084228515625,17183,1,1762.0,1722.0,1757.0,1751.0,0.0,1751.0,1762.0,1745.0,-126.94217681884766,-11.423504829406738,-64.98385620117188,Left
2654.084228515625,17183,1,1757.0,1804.0,1765.0,1772.0,0.0,1746.0,1759.0,1759.0,-126.94217681884766,-11.423504829406738,-64.98385620117188,Left
2656.084228515625,17183,1,1764.0,1799.0,1763.0,1721.0,0.0,1751.0,1757.0,1741.0,-126.94217681884766,-11.423504829406738,-64.98385620117188,Left
2658.084228515625,17183,1,1770.0,1688.0,1757.0,1675.0,0.0,1751.0,1761.0,1739.0,-126.94217681884766,-11.423504829406738,-64.98385620117188,Left
2657.2373046875,17184,1,1751.0,1741.0,1755.0,1769.0,0.0,1749.0,1753.0,1749.0,-126.94217681884766,-11.423504829406738,-64.98385620117188,Left
2659.2373046875,17184,1,1737.0,1747.0,1739.0,1752.0,0.0,1749.0,1759.0,1743.0,-126.94217681884766,-11.423504829406738,-64.98385620117188,Left
2661.2373046875,17184,1,1765.0,1811.0,1743.0,1753.0,3781.0,1752.0,1763.0,1739.0,-126.94217681884766,-11.423504829406738,-64.98385620117188,Left
2663.2373046875,17184,1,1757.0,1788.0,1768.0,1788.0,3789.0,1745.0,1759.0,1757.0,-126.94217681884766,-11.423504829406738,-64.98385620117188,Left
2665.2373046875,17184,1,1747.0,1790.0,1751.0,1779.0,3783.0,1751.0,1763.0,1749.0,-126.94217681884766,-11.423504829406738,-64.98385620117188,Left
2663.17626953125,17185,1,1752.0,1733.0,1762.0,1758.0,3795.0,1751.0,1763.0,1747.0,-126.94217681884766,-11.423504829406738,-64.98385620117188,Left
2665.17626953125,17185,1,1773.0,1722.0,1775.0,1763.0,3803.0,1752.0,1755.0,1755.0,-126.94217681884766,-11.423504829406738,-64.98385620117188,Left
2667.17626953125,17185,1,1759.0,1647.0,1752.0,1721.0,2886.0,1753.0,1758.0,1757.0,-126.94217681884766,-11.423504829406738,-64.98385620117188,Left
2669.17626953125,17185,1,1773.0,1853.0,1757.0,1813.0,1975.0,1753.0,1756.0,1757.0,-126.94217681884766,-11.423504829406738,-64.98385620117188,Left
2671.17626953125,17185,1,1773.0,1813.0,1754.0,1728.0,1370.0,1751.0,1756.0,1742.0,-126.94217681884766,-11.423504829406738,-64.98385620117188,Left
2672.298095703125,17186,1,1758.0,1691.0,1757.0,1753.0,1069.0,1747.0,1759.0,1753.0,-126.94217681884766,-11.423504829406738,-64.98385620117188,Left
2674.298095703125,17186,1,1757.0,1735.0,1746.0,1693.0,1049.0,1751.0,1755.0,1741.0,-126.94217681884766,-11.423504829406738,-64.98385620117188,Left
2676.298095703125,17186,1,1768.0,1717.0,1751.0,1724.0,1056.0,1749.0,1757.0,1733.0,-126.94217681884766,-11.423504829406738,-64.98385620117188,Left
2678.298095703125,17186,1,1751.0,1773.0,1759.0,1785.0,1103.0,1753.0,1759.0,1749.0,-126.94217681884766,-11.423504829406738,-64.98385620117188,Left
2680.298095703125,17186,1,1755.0,1823.0,1767.0,1833.0,1237.0,1752.0,1756.0,1749.0,-126.94217681884766,-11.423504829406738,-64.98385620117188,Left
2682.050048828125,17187,1,1765.0,1829.0,1765.0,1829.0,1342.0,1743.0,1753.0,1747.0,-126.94217681884766,-11.423504829406738,-64.98385620117188,Left
2684.050048828125,17187,1,1773.0,1699.0,1736.0,1652.0,1307.0,1752.0,1753.0,1740.0,-126.94217681884766,-11.423504829406738,-64.98385620117188,Left
2686.050048828125,17187,1,1809.0,1753.0,1755.0,1723.0,1371.0,1751.0,1757.0,1737.0,-126.94217681884766,-11.423504829406738,-64.98385620117188,Left
2688.050048828125,17187,1,1742.0,1705.0,1726.0,1695.0,1432.0,1747.0,1759.0,1727.0,-121.03010559082031,-10.389742851257324,-63.535430908203125,Left
2690.050048828125,17187,1,1747.0,1786.0,1753.0,1743.0,1499.0,1752.0,1759.0,1753.0,-121.03010559082031,-10.389742851257324,-63.535430908203125,Left
2703.772216796875,17188,1,1747.0,1749.0,1766.0,1772.0,1551.0,1751.0,1758.0,1751.0,-121.03010559082031,-10.389742851257324,-63.535430908203125,Left
2705.772216796875,17188,1,1757.0,1798.0,1757.0,1781.0,1593.0,1749.0,1757.0,1755.0,-121.03010559082031,-10.389742851257324,-63.535430908203125,Left
2707.772216796875,17188,1,1785.0,1821.0,1765.0,1829.0,1671.0,1743.0,1761.0,1743.0,-121.03010559082031,-10.389742851257324,-63.535430908203125,Left
2709.772216796875,17188,1,1763.0,1759.0,1745.0,1742.0,1685.0,1745.0,1762.0,1732.0,-121.03010559082031,-10.389742851257324,-63.535430908203125,Left
2711.772216796875,17188,1,1749.0,1820.0,1740.0,1751.0,1715.0,1755.0,1763.0,1727.0,-121.03010559082031,-10.389742851257324,-63.535430908203125,Left
2706.694091796875,17189,1,1739.0,1803.0,1753.0,1783.0,1720.0,1745.0,1757.0,1741.0,-121.03010559082031,-10.389742851257324,-63.535430908203125,Left
2708.694091796875,17189,1,1767.0,1721.0,1753.0,1735.0,1673.0,1752.0,1758.0,1758.0,-121.03010559082031,-10.389742851257324,-63.535430908203125,Left
2710.694091796875,17189,1,1743.0,1657.0,1753.0,1676.0,1604.0,1745.0,1759.0,1735.0,-121.03010559082031,-10.389742851257324,-63.535430908203125,Left
2712.694091796875,17189,1,1743.0,1690.0,1752.0,1736.0,1629.0,1747.0,1757.0,1747.0,-121.03010559082031,-10.389742851257324,-63.535430908203125,Left
2714.694091796875,17189,1,1752.0,1854.0,1752.0,1819.0,1775.0,1743.0,1761.0,1747.0,-121.03010559082031,-10.389742851257324,-63.535430908203125,Left
2738.436279296875,17190,1,1764.0,1849.0,1764.0,1817.0,1765.0,1751.0,1763.0,1753.0,-121.03010559082031,-10.389742851257324,-63.535430908203125,Left
2740.436279296875,17190,1,1771.0,1861.0,1759.0,1754.0,1765.0,1751.0,1757.0,1749.0,-121.03010559082031,-10.389742851257324,-63.535430908203125,Left
2742.436279296875,17190,1,1765.0,1828.0,1767.0,1828.0,1757.0,1751.0,1764.0,1751.0,-121.03010559082031,-10.389742851257324,-63.535430908203125,Left
2744.436279296875,17190,1,1749.0,1723.0,1741.0,1739.0,1741.0,1749.0,1763.0,1735.0,-121.03010559082031,-10.389742851257324,-63.535430908203125,Left
2746.436279296875,17190,1,1749.0,1636.0,1725.0,1651.0,1660.0,1752.0,1759.0,1736.0,-121.03010559082031,-10.389742851257324,-63.535430908203125,Left
2739.354248046875,17191,1,1763.0,1715.0,1755.0,1772.0,1717.0,1749.0,1755.0,1759.0,-121.03010559082031,-10.389742851257324,-63.535430908203125,Left
2741.354248046875,17191,1,1768.0,1765.0,1753.0,1785.0,1736.0,1755.0,1763.0,1764.0,-121.03010559082031,-10.389742851257324,-63.535430908203125,Left
2743.354248046875,17191,1,1765.0,1721.0,1755.0,1737.0,1767.0,1751.0,1762.0,1753.0,-121.03010559082031,-10.389742851257324,-63.535430908203125,Left
2745.354248046875,17191,1,1769.0,1781.0,1755.0,1733.0,1783.0,1752.0,1763.0,1748.0,-121.03010559082031,-10.389742851257324,-63.535430908203125,Left
2747.354248046875,17191,1,1754.0,1773.0,1763.0,1792.0,1750.0,1752.0,1759.0,1749.0,-121.03010559082031,-10.389742851257324,-63.535430908203125,Left
2739.83935546875,17192,1,1771.0,1949.0,1772.0,1891.0,1811.0,1751.0,1756.0,1753.0,-121.03010559082031,-10.389742851257324,-63.535430908203125,Left
2741.83935546875,17192,1,1764.0,1817.0,1741.0,1715.0,1727.0,1743.0,1759.0,1724.0,-121.03010559082031,-10.389742851257324,-63.535430908203125,Left
2743.83935546875,17192,1,1751.0,1619.0,1741.0,1637.0,1693.0,1751.0,1759.0,1736.0,-121.03010559082031,-10.389742851257324,-63.535430908203125,Left
2745.83935546875,17192,1,1756.0,1755.0,1753.0,1755.0,1797.0,1753.0,1757.0,1751.0,-121.03010559082031,-10.389742851257324,-63.535430908203125,Left
2747.83935546875,17192,1,1719.0,1775.0,1735.0,1771.0,1700.0,1753.0,1759.0,1717.0,-121.03010559082031,-10.389742851257324,-63.535430908203125,Left
2741.419921875,17193,1,1740.0,1685.0,1759.0,1748.0,1690.0,1751.0,1763.0,1749.0,-121.03010559082031,-10.389742851257324,-63.535430908203125,Left
2743.419921875,17193,1,1771.0,1737.0,1764.0,1797.0,1775.0,1753.0,1757.0,1775.0,-121.03010559082031,-10.389742851257324,-63.535430908203125,Left
2745.419921875,17193,1,1791.0,1839.0,1773.0,1839.0,1812.0,1747.0,1759.0,1758.0,-121.03010559082031,-10.389742851257324,-63.535430908203125,Left
2747.419921875,17193,1,1781.0,1719.0,1771.0,1755.0,1727.0,1751.0,1763.0,1764.0,-121.03010559082031,-10.389742851257324,-63.535430908203125,Left
2749.419921875,17193,1,1753.0,1767.0,1741.0,1711.0,1763.0,1751.0,1763.0,1722.0,-121.03010559082031,-10.389742851257324,-63.535430908203125,Left
2765.791259765625,17194,1,1743.0,1854.0,1735.0,1751.0,1773.0,1751.0,1761.0,1739.0,-121.03010559082031,-10.389742851257324,-63.535430908203125,Left
2767.791259765625,17194,1,1724.0,1679.0,1739.0,1682.0,1651.0,1746.0,1759.0,1733.0,-118.39906311035156,-9.702057838439941,-61.53624725341797,Left
2769.791259765625,17194,1,1745.0,1735.0,1754.0,1767.0,1735.0,1748.0,1757.0,1757.0,-118.39906311035156,-9.702057838439941,-61.53624725341797,Left
2771.791259765625,17194,1,1765.0,1755.0,1767.0,1749.0,1767.0,1751.0,1759.0,1758.0,-118.39906311035156,-9.702057838439941,-61.53624725341797,Left
2773.791259765625,17194,1,1757.0,1685.0,1743.0,1745.0,1708.0,1752.0,1757.0,1747.0,-118.39906311035156,-9.702057838439941,-61.53624725341797,Left
2770.395263671875,17195,1,1803.0,1721.0,1758.0,1798.0,1800.0,1753.0,1762.0,1775.0,-118.39906311035156,-9.702057838439941,-61.53624725341797,Left
2772.395263671875,17195,1,1799.0,1863.0,1791.0,1893.0,1816.0,1749.0,1758.0,1774.0,-118.39906311035156,-9.702057838439941,-61.53624725341797,Left
2774.395263671875,17195,1,1743.0,1871.0,1750.0,1775.0,1773.0,1753.0,1756.0,1719.0,-118.39906311035156,-9.702057838439941,-61.53624725341797,Left
2776.395263671875,17195,1,1717.0,1575.0,1715.0,1571.0,1638.0,1751.0,1763.0,1701.0,-118.39906311035156,-9.702057838439941,-61.53624725341797,Left
2778.395263671875,17195,1,1753.0,1725.0,1742.0,1710.0,1736.0,1753.0,1763.0,1743.0,-118.39906311035156,-9.702057838439941,-61.53624725341797,Left
2802.376220703125,17196,1,1771.0,1835.0,1773.0,1812.0,1815.0,1751.0,1764.0,1769.0,-118.39906311035156,-9.702057838439941,-61.53624725341797,Left
2804.376220703125,17196,1,1757.0,1800.0,1775.0,1803.0,1765.0,1745.0,1759.0,1763.0,-118.39906311035156,-9.702057838439941,-61.53624725341797,Left
2806.376220703125,17196,1,1769.0,1791.0,1772.0,1743.0,1748.0,1751.0,1763.0,1748.0,-118.39906311035156,-9.702057838439941,-61.53624725341797,Left
2808.376220703125,17196,1,1757.0,1785.0,1759.0,1778.0,1781.0,1745.0,1757.0,1757.0,-118.39906311035156,-9.702057838439941,-61.53624725341797,Left
2810.376220703125,17196,1,1755.0,1699.0,1763.0,1738.0,1749.0,1753.0,1759.0,1757.0,-118.39906311035156,-9.702057838439941,-61.53624725341797,Left
2803.2412109375,17197,1,1773.0,1883.0,1769.0,1865.0,1775.0,1751.0,1763.0,1738.0,-118.39906311035156,-9.702057838439941,-61.53624725341797,Left
2805.2412109375,17197,1,1752.0,1586.0,1752.0,1703.0,1656.0,1751.0,1755.0,1738.0,-118.39906311035156,-9.702057838439941,-61.53624725341797,Left
2807.2412109375,17197,1,1757.0,1671.0,1753.0,1706.0,1721.0,1752.0,1759.0,1737.0,-118.39906311035156,-9.702057838439941,-61.53624725341797,Left
2809.2412109375,17197,1,1724.0,1763.0,1738.0,1727.0,1752.0,1749.0,1755.0,1741.0,-118.39906311035156,-9.702057838439941,-61.53624725341797,Left
2811.2412109375,17197,1,1769.0,1881.0,1752.0,1779.0,1797.0,1747.0,1757.0,1755.0,-118.39906311035156,-9.702057838439941,-61.53624725341797,Left
2803.8232421875,17198,1,1765.0,1737.0,1762.0,1743.0,1725.0,1751.0,1761.0,1751.0,-118.39906311035156,-9.702057838439941,-61.53624725341797,Left
2805.8232421875,17198,1,1767.0,1788.0,1763.0,1770.0,1752.0,1753.0,1761.0,1751.0,-118.39906311035156,-9.702057838439941,-61.53624725341797,Left
2807.8232421875,17198,1,1758.0,1854.0,1756.0,1843.0,1754.0,1752.0,1763.0,1753.0,-118.39906311035156,-9.702057838439941,-61.53624725341797,Left
2809.8232421875,17198,1,1769.0,1737.0,1759.0,1721.0,1755.0,1752.0,1763.0,1751.0,-118.39906311035156,-9.702057838439941,-61.53624725341797,Left
2811.8232421875,17198,1,1749.0,1605.0,1743.0,1663.0,1663.0,1750.0,1753.0,1739.0,-118.39906311035156,-9.702057838439941,-61.53624725341797,Left
2804.494140625,17199,1,1758.0,1771.0,1752.0,1800.0,1781.0,1753.0,1753.0,1759.0,-118.39906311035156,-9.702057838439941,-61.53624725341797,Left
2806.494140625,17199,1,1772.0,1812.0,1771.0,1791.0,1784.0,1753.0,1763.0,1752.0,-118.39906311035156,-9.702057838439941,-61.53624725341797,Left
2808.494140625,17199,1,1752.0,1700.0,1753.0,1725.0,1734.0,1745.0,1757.0,1753.0,-118.39906311035156,-9.702057838439941,-61.53624725341797,Left
2810.494140625,17199,1,1753.0,1741.0,1759.0,1763.0,1705.0,1752.0,1763.0,1739.0,-118.39906311035156,-9.702057838439941,-61.53624725341797,Left
2812.494140625,17199,1,1727.0,1765.0,1737.0,1706.0,1753.0,1753.0,1757.0,1735.0,-118.39906311035156,-9.702057838439941,-61.53624725341797,Left
2835.2841796875,17200,1,1783.0,1755.0,1781.0,1819.0,1749.0,1751.0,1759.0,1768.0,-118.39906311035156,-9.702057838439941,-61.53624725341797,Left
2837.2841796875,17200,1,1757.0,1864.0,1756.0,1835.0,1821.0,1751.0,1757.0,1739.0,-118.39906311035156,-9.702057838439941,-61.53624725341797,Left
2839.2841796875,17200,1,1725.0,1721.0,1708.0,1639.0,1685.0,1745.0,1758.0,1717.0,-118.39906311035156,-9.702057838439941,-61.53624725341797,Left
2841.2841796875,17200,1,1753.0,1707.0,1755.0,1747.0,1747.0,1749.0,1763.0,1751.0,-121.09037780761719,-9.424944877624512,-60.49162673950195,Left
2843.2841796875,17200,1,1767.0,1679.0,1757.0,1707.0,1721.0,1751.0,1763.0,1755.0,-121.09037780761719,-9.424944877624512,-60.49162673950195,Left
2835.981201171875,17201,1,1750.0,1725.0,1746.0,1758.0,1749.0,1750.0,1753.0,1747.0,-121.09037780761719,-9.424944877624512,-60.49162673950195,Left
2837.981201171875,17201,1,1783.0,1835.0,1773.0,1853.0,1861.0,1751.0,1763.0,1775.0,-121.09037780761719,-9.424944877624512,-60.49162673950195,Left
2839.981201171875,17201,1,1788.0,1847.0,1789.0,1840.0,1802.0,1743.0,1761.0,1763.0,-121.09037780761719,-9.424944877624512,-60.49162673950195,Left
2841.981201171875,17201,1,1747.0,1748.0,1753.0,1756.0,1693.0,1752.0,1757.0,1743.0,-121.09037780761719,-9.424944877624512,-60.49162673950195,Left
2843.981201171875,17201,1,1746.0,1816.0,1748.0,1756.0,1693.0,1751.0,1757.0,1719.0,-121.09037780761719,-9.424944877624512,-60.49162673950195,Left
2843.37841796875,17202,1,1736.0,1659.0,1724.0,1677.0,1772.0,1751.0,1757.0,1733.0,-121.09037780761719,-9.424944877624512,-60.49162673950195,Left
2845.37841796875,17202,1,1757.0,1816.0,1753.0,1788.0,1785.0,1751.0,1758.0,1755.0,-121.09037780761719,-9.424944877624512,-60.49162673950195,Left
2847.37841796875,17202,1,1774.0,1720.0,1749.0,1702.0,1751.0,1752.0,1752.0,1747.0,-121.09037780761719,-9.424944877624512,-60.49162673950195,Left
2849.37841796875,17202,1,1770.0,1733.0,1763.0,1780.0,1734.0,1747.0,1759.0,1753.0,-121.09037780761719,-9.424944877624512,-60.49162673950195,Left
2851.37841796875,17202,1,1783.0,1823.0,1773.0,1848.0,1791.0,1752.0,1757.0,1764.0,-121.09037780761719,-9.424944877624512,-60.49162673950195,Left
2843.8154296875,17203,1,1751.0,1768.0,1747.0,1769.0,1701.0,1751.0,1762.0,1737.0,-121.09037780761719,-9.424944877624512,-60.49162673950195,Left
2845.8154296875,17203,1,1771.0,1773.0,1772.0,1811.0,1797.0,1751.0,1755.0,1763.0,-121.09037780761719,-9.424944877624512,-60.49162673950195,Left
2847.8154296875,17203,1,1767.0,1647.0,1741.0,1611.0,1673.0,1753.0,1758.0,1711.0,-121.09037780761719,-9.424944877624512,-60.49162673950195,Left
2849.8154296875,17203,1,1753.0,1751.0,1749.0,1707.0,1753.0,1750.0,1763.0,1765.0,-121.09037780761719,-9.424944877624512,-60.49162673950195,Left
2851.8154296875,17203,1,1781.0,1845.0,1768.0,1757.0,1843.0,1741.0,1738.0,1771.0,-121.09037780761719,-9.424944877624512,-60.49162673950195,Left
2862.59912109375,17204,1,1757.0,1789.0,1747.0,1749.0,1711.0,1739.0,1759.0,1734.0,-121.09037780761719,-9.424944877624512,-60.49162673950195,Left
2864.59912109375,17204,1,1726.0,1763.0,1740.0,1765.0,1725.0,1741.0,1764.0,1716.0,-121.09037780761719,-9.424944877624512,-60.49162673950195,Left
2866.59912109375,17204,1,1747.0,1737.0,1750.0,1753.0,1631.0,1752.0,1753.0,1736.0,-121.09037780761719,-9.424944877624512,-60.49162673950195,Left
2868.59912109375,17204,1,1764.0,1791.0,1765.0,1787.0,1783.0,1751.0,1753.0,1755.0,-121.09037780761719,-9.424944877624512,-60.49162673950195,Left
2870.59912109375,17204,1,1772.0,1784.0,1763.0,1772.0,1767.0,1753.0,1759.0,1747.0,-121.09037780761719,-9.424944877624512,-60.49162673950195,Left
2863.313232421875,17205,1,1768.0,1751.0,1763.0,1771.0,1757.0,1750.0,1763.0,1745.0,-121.09037780761719,-9.424944877624512,-60.49162673950195,Left
2865.313232421875,17205,1,1763.0,1775.0,1757.0,1784.0,1775.0,1753.0,1757.0,1757.0,-121.09037780761719,-9.424944877624512,-60.49162673950195,Left
2867.313232421875,17205,1,1773.0,1833.0,1773.0,1829.0,1807.0,1751.0,1757.0,1752.0,-121.09037780761719,-9.424944877624512,-60.49162673950195,Left
2869.313232421875,17205,1,1755.0,1799.0,1751.0,1765.0,1786.0,1753.0,1757.0,1740.0,-121.09037780761719,-9.424944877624512,-60.49162673950195,Left
2871.313232421875,17205,1,1739.0,1609.0,1725.0,1656.0,1705.0,1751.0,1757.0,1737.0,-121.09037780761719,-9.424944877624512,-60.49162673950195,Left
2882.820068359375,17206,1,1749.0,1719.0,1754.0,1789.0,1689.0,1747.0,1756.0,1759.0,-121.09037780761719,-9.424944877624512,-60.49162673950195,Left
2884.820068359375,17206,1,1769.0,1919.0,1759.0,1803.0,1788.0,1749.0,1762.0,1753.0,-121.09037780761719,-9.424944877624512,-60.49162673950195,Left
2886.820068359375,17206,1,1763.0,1754.0,1747.0,1672.0,1735.0,1747.0,1763.0,1742.0,-121.09037780761719,-9.424944877624512,-60.49162673950195,Left
2888.820068359375,17206,1,1751.0,1715.0,1739.0,1723.0,1749.0,1747.0,1762.0,1755.0,-121.09037780761719,-9.424944877624512,-60.49162673950195,Left
2890.820068359375,17206,1,1753.0,1694.0,1743.0,1733.0,1739.0,1753.0,1763.0,1742.0,-121.09037780761719,-9.424944877624512,-60.49162673950195,Left
2883.71142578125,17207,1,1735.0,1739.0,1751.0,1763.0,1753.0,1751.0,1764.0,1747.0,-121.09037780761719,-9.424944877624512,-60.49162673950195,Left
2885.71142578125,17207,1,1763.0,1710.0,1767.0,1761.0,1752.0,1751.0,1753.0,1753.0,-121.7409896850586,-8.742838859558105,-59.24296951293945,Left
2887.71142578125,17207,1,1767.0,1789.0,1766.0,1831.0,1783.0,1751.0,1761.0,1751.0,-121.7409896850586,-8.742838859558105,-59.24296951293945,Left
2889.71142578125,17207,1,1781.0,1902.0,1779.0,1897.0,1799.0,1751.0,1757.0,1769.0,-121.7409896850586,-8.742838859558105,-59.24296951293945,Left
2891.71142578125,17207,1,1767.0,1703.0,1727.0,1607.0,1660.0,1743.0,1762.0,1711.0,-121.7409896850586,-8.742838859558105,-59.24296951293945,Left
2889.193359375,17208,1,1755.0,1647.0,1747.0,1709.0,1687.0,1745.0,1762.0,1753.0,-121.7409896850586,-8.742838859558105,-59.24296951293945,Left
2891.193359375,17208,1,1772.0,1756.0,1766.0,1779.0,1765.0,1741.0,1759.0,1753.0,-121.7409896850586,-8.742838859558105,-59.24296951293945,Left
2893.193359375,17208,1,1753.0,1883.0,1737.0,1770.0,1781.0,1740.0,1762.0,1726.0,-121.7409896850586,-8.742838859558105,-59.24296951293945,Left
2895.193359375,17208,1,1749.0,1838.0,1747.0,1802.0,1833.0,1751.0,1761.0,1747.0,-121.7409896850586,-8.742838859558105,-59.24296951293945,Left
2897.193359375,17208,1,1749.0,1764.0,1749.0,1768.0,1739.0,1749.0,1763.0,1754.0,-121.7409896850586,-8.742838859558105,-59.24296951293945,Left
2903.986328125,17209,1,1759.0,1775.0,1772.0,1747.0,1759.0,1749.0,1763.0,1747.0,-121.7409896850586,-8.742838859558105,-59.24296951293945,Left
2905.986328125,17209,1,1775.0,1701.0,1758.0,1768.0,1692.0,1746.0,1759.0,1735.0,-121.7409896850586,-8.742838859558105,-59.24296951293945,Left
2907.986328125,17209,1,1774.0,1706.0,1755.0,1755.0,1699.0,1751.0,1763.0,1765.0,-121.7409896850586,-8.742838859558105,-59.24296951293945,Left
2909.986328125,17209,1,1763.0,1701.0,1749.0,1705.0,1751.0,1751.0,1757.0,1746.0,-121.7409896850586,-8.742838859558105,-59.24296951293945,Left
2911.986328125,17209,1,1752.0,1820.0,1743.0,1724.0,1754.0,1749.0,1758.0,1747.0,-121.7409896850586,-8.742838859558105,-59.24296951293945,Left
2910.043212890625,17210,1,1747.0,1831.0,1752.0,1799.0,1768.0,1753.0,1753.0,1742.0,-121.7409896850586,-8.742838859558105,-59.24296951293945,Left
2912.043212890625,17210,1,1749.0,1780.0,1755.0,1765.0,1764.0,1745.0,1759.0,1746.0,-121.7409896850586,-8.742838859558105,-59.24296951293945,Left
2914.043212890625,17210,1,1772.0,1823.0,1779.0,1837.0,1784.0,1753.0,1758.0,1765.0,-121.7409896850586,-8.742838859558105,-59.24296951293945,Left
2916.043212890625,17210,1,1780.0,1925.0,1769.0,1853.0,1823.0,1751.0,1753.0,1759.0,-121.7409896850586,-8.742838859558105,-59.24296951293945,Left
2918.043212890625,17210,1,1739.0,1557.0,1742.0,1642.0,1671.0,1753.0,1759.0,1743.0,-121.7409896850586,-8.742838859558105,-59.24296951293945,Left
2935.008056640625,17211,1,1749.0,1754.0,1741.0,1717.0,1737.0,1747.0,1750.0,1726.0,-121.7409896850586,-8.742838859558105,-59.24296951293945,Left
2937.008056640625,17211,1,1751.0,1670.0,1742.0,1741.0,1785.0,1753.0,1758.0,1747.0,-121.7409896850586,-8.742838859558105,-59.24296951293945,Left
2939.008056640625,17211,1,1751.0,1765.0,1747.0,1737.0,1723.0,1749.0,1757.0,1745.0,-121.7409896850586,-8.742838859558105,-59.24296951293945,Left
2941.008056640625,17211,1,1762.0,1676.0,1763.0,1716.0,1717.0,1741.0,1759.0,1746.0,-121.7409896850586,-8.742838859558105,-59.24296951293945,Left
2943.008056640625,17211,1,1769.0,1843.0,1758.0,1833.0,1789.0,1753.0,1757.0,1757.0,-121.7409896850586,-8.742838859558105,-59.24296951293945,Left
2936.025146484375,17212,1,1770.0,1829.0,1764.0,1805.0,1754.0,1747.0,1757.0,1747.0,-121.7409896850586,-8.742838859558105,-59.24296951293945,Left
2938.025146484375,17212,1,1755.0,1715.0,1752.0,1695.0,1706.0,1752.0,1761.0,1749.0,-121.7409896850586,-8.742838859558105,-59.24296951293945,Left
2940.025146484375,17212,1,1753.0,1756.0,1764.0,1737.0,1755.0,1745.0,1758.0,1752.0,-121.7409896850586,-8.742838859558105,-59.24296951293945,Left
2942.025146484375,17212,1,1762.0,1772.0,1759.0,1787.0,1772.0,1747.0,1755.0,1747.0,-121.7409896850586,-8.742838859558105,-59.24296951293945,Left
2944.025146484375,17212,1,1783.0,1907.0,1759.0,1829.0,1853.0,1751.0,1763.0,1751.0,-121.7409896850586,-8.742838859558105,-59.24296951293945,Left
2941.84716796875,17213,1,1741.0,1628.0,1747.0,1689.0,1651.0,1743.0,1761.0,1738.0,-121.7409896850586,-8.742838859558105,-59.24296951293945,Left
2943.84716796875,17213,1,1753.0,1679.0,1767.0,1765.0,1717.0,1753.0,1754.0,1755.0,-121.7409896850586,-8.742838859558105,-59.24296951293945,Left
2945.84716796875,17213,1,1752.0,1723.0,1765.0,1822.0,1763.0,1752.0,1763.0,1751.0,-121.7409896850586,-8.742838859558105,-59.24296951293945,Left
2947.84716796875,17213,1,1754.0,1784.0,1749.0,1677.0,1743.0,1745.0,1758.0,1755.0,-121.7409896850586,-8.742838859558105,-59.24296951293945,Left
2949.84716796875,17213,1,1759.0,1839.0,1741.0,1735.0,1770.0,1747.0,1756.0,1751.0,-121.53683471679688,-8.378207206726074,-58.49584197998047,Left
2973.84326171875,17214,1,1755.0,1757.0,1743.0,1756.0,1747.0,1747.0,1759.0,1741.0,-121.53683471679688,-8.378207206726074,-58.49584197998047,Left
2975.84326171875,17214,1,1763.0,1725.0,1772.0,1803.0,1677.0,1752.0,1757.0,1757.0,-121.53683471679688,-8.378207206726074,-58.49584197998047,Left
2977.84326171875,17214,1,1765.0,1893.0,1769.0,1839.0,1875.0,1750.0,1753.0,1757.0,-121.53683471679688,-8.378207206726074,-58.49584197998047,Left
2979.84326171875,17214,1,1752.0,1677.0,1751.0,1727.0,1791.0,1749.0,1763.0,1747.0,-121.53683471679688,-8.378207206726074,-58.49584197998047,Left
2981.84326171875,17214,1,1749.0,1581.0,1747.0,1647.0,1656.0,1752.0,1756.0,1749.0,-121.53683471679688,-8.378207206726074,-58.49584197998047,Left
2974.35009765625,17215,1,1763.0,1801.0,1765.0,1787.0,1776.0,1751.0,1761.0,1766.0,-121.53683471679688,-8.378207206726074,-58.49584197998047,Left
2976.35009765625,17215,1,1752.0,1709.0,1753.0,1753.0,1752.0,1751.0,1759.0,1733.0,-121.53683471679688,-8.378207206726074,-58.49584197998047,Left
2978.35009765625,17215,1,1756.0,1813.0,1755.0,1810.0,1799.0,1743.0,1758.0,1749.0,-121.53683471679688,-8.378207206726074,-58.49584197998047,Left
2980.35009765625,17215,1,1773.0,1768.0,1753.0,1747.0,1748.0,1745.0,1759.0,1741.0,-121.53683471679688,-8.378207206726074,-58.49584197998047,Left
2982.35009765625,17215,1,1756.0,1824.0,1753.0,1779.0,1775.0,1752.0,1762.0,1748.0,-121.53683471679688,-8.378207206726074,-58.49584197998047,Left
2988.9453125,17216,1,1768.0,1732.0,1767.0,1803.0,1709.0,1752.0,1763.0,1742.0,-121.53683471679688,-8.378207206726074,-58.49584197998047,Left
2990.9453125,17216,1,1735.0,1750.0,1739.0,1739.0,1749.0,1753.0,1754.0,1747.0,-121.53683471679688,-8.378207206726074,-58.49584197998047,Left
2992.9453125,17216,1,1752.0,1818.0,1753.0,1757.0,1727.0,1751.0,1759.0,1753.0,-121.53683471679688,-8.378207206726074,-58.49584197998047,Left
2994.9453125,17216,1,1763.0,1688.0,1757.0,1683.0,1743.0,1752.0,1761.0,1747.0,-121.53683471679688,-8.378207206726074,-58.49584197998047,Left
2996.9453125,17216,1,1757.0,1748.0,1749.0,1746.0,1736.0,1751.0,1759.0,1739.0,-121.53683471679688,-8.378207206726074,-58.49584197998047,Left
2989.534423828125,17217,1,1781.0,1660.0,1765.0,1769.0,1738.0,1751.0,1754.0,1770.0,-121.53683471679688,-8.378207206726074,-58.49584197998047,Left
2991.534423828125,17217,1,1765.0,1715.0,1756.0,1737.0,1758.0,1751.0,1759.0,1746.0,-121.53683471679688,-8.378207206726074,-58.49584197998047,Left
2993.534423828125,17217,1,1759.0,1824.0,1755.0,1754.0,1785.0,1753.0,1759.0,1747.0,-121.53683471679688,-8.378207206726074,-58.49584197998047,Left
2995.534423828125,17217,1,1747.0,1753.0,1755.0,1747.0,1736.0,1751.0,1759.0,1746.0,-121.53683471679688,-8.378207206726074,-58.49584197998047,Left
2997.534423828125,17217,1,1765.0,1844.0,1749.0,1767.0,1739.0,1751.0,1753.0,1736.0,-121.53683471679688,-8.378207206726074,-58.49584197998047,Left
2999.9423828125,17218,1,1783.0,1787.0,1763.0,1765.0,1781.0,1753.0,1759.0,1751.0,-121.53683471679688,-8.378207206726074,-58.49584197998047,Left
3001.9423828125,17218,1,1740.0,1636.0,1751.0,1715.0,1673.0,1750.0,1763.0,1751.0,-121.53683471679688,-8.378207206726074,-58.49584197998047,Left
3003.9423828125,17218,1,1763.0,1917.0,1773.0,1883.0,1868.0,1743.0,1751.0,1757.0,-121.53683471679688,-8.378207206726074,-58.49584197998047,Left
3005.9423828125,17218,1,1736.0,1898.0,1733.0,1770.0,1783.0,1755.0,1763.0,1747.0,-121.53683471679688,-8.378207206726074,-58.49584197998047,Left
3007.9423828125,17218,1,1739.0,1607.0,1737.0,1631.0,1607.0,1751.0,1757.0,1738.0,-121.53683471679688,-8.378207206726074,-58.49584197998047,Left
3033.439453125,17219,1,1751.0,1627.0,1749.0,1688.0,1718.0,1752.0,1762.0,1751.0,-121.53683471679688,-8.378207206726074,-58.49584197998047,Left
3035.439453125,17219,1,1769.0,1789.0,1772.0,1815.0,1805.0,1751.0,1765.0,1763.0,-121.53683471679688,-8.378207206726074,-58.49584197998047,Left
3037.439453125,17219,1,1769.0,1783.0,1763.0,1774.0,1773.0,1754.0,1759.0,1746.0,-121.53683471679688,-8.378207206726074,-58.49584197998047,Left
3039.439453125,17219,1,1767.0,1696.0,1751.0,1753.0,1706.0,1749.0,1757.0,1753.0,-121.53683471679688,-8.378207206726074,-58.49584197998047,Left
3041.439453125,17219,1,1763.0,1817.0,1767.0,1763.0,1772.0,1751.0,1759.0,1755.0,-121.53683471679688,-8.378207206726074,-58.49584197998047,Left
3034.028076171875,17220,1,1763.0,1772.0,1755.0,1755.0,1722.0,1753.0,1758.0,1757.0,-121.53683471679688,-8.378207206726074,-58.49584197998047,Left
3036.028076171875,17220,1,1779.0,1811.0,1769.0,1815.0,1815.0,1753.0,1763.0,1773.0,-123.38446807861328,-8.456046104431152,-58.35264205932617,Left
3038.028076171875,17220,1,1770.0,1884.0,1759.0,1813.0,1831.0,1751.0,1755.0,1739.0,-123.38446807861328,-8.456046104431152,-58.35264205932617,Left
3040.028076171875,17220,1,1739.0,1738.0,1727.0,1669.0,1677.0,1753.0,1763.0,1733.0,-123.38446807861328,-8.456046104431152,-58.35264205932617,Left
3042.028076171875,17220,1,1755.0,1689.0,1752.0,1737.0,1703.0,1753.0,1754.0,1721.0,-123.38446807861328,-8.456046104431152,-58.35264205932617,Left
3034.315185546875,17221,1,1733.0,1701.0,1742.0,1763.0,1710.0,1749.0,1753.0,1735.0,-123.38446807861328,-8.456046104431152,-58.35264205932617,Left
3036.315185546875,17221,1,1758.0,1753.0,1765.0,1756.0,1711.0,1740.0,1757.0,1759.0,-123.38446807861328,-8.456046104431152,-58.35264205932617,Left
3038.315185546875,17221,1,1769.0,1701.0,1769.0,1769.0,1756.0,1749.0,1759.0,1764.0,-123.38446807861328,-8.456046104431152,-58.35264205932617,Left
3040.315185546875,17221,1,1774.0,1763.0,1767.0,1735.0,1784.0,1753.0,1757.0,1753.0,-123.38446807861328,-8.456046104431152,-58.35264205932617,Left
3042.315185546875,17221,1,1746.0,1942.0,1749.0,1806.0,1811.0,1751.0,1757.0,1743.0,-123.38446807861328,-8.456046104431152,-58.35264205932617,Left
3041.72119140625,17222,1,1718.0,1669.0,1720.0,1628.0,1705.0,1750.0,1757.0,1725.0,-123.38446807861328,-8.456046104431152,-58.35264205932617,Left
3043.72119140625,17222,1,1770.0,1813.0,1768.0,1769.0,1753.0,1751.0,1762.0,1775.0,-123.38446807861328,-8.456046104431152,-58.35264205932617,Left
3045.72119140625,17222,1,1768.0,1715.0,1775.0,1827.0,1757.0,1743.0,1759.0,1763.0,-123.38446807861328,-8.456046104431152,-58.35264205932617,Left
3047.72119140625,17222,1,1771.0,1799.0,1750.0,1784.0,1779.0,1752.0,1762.0,1737.0,-123.38446807861328,-8.456046104431152,-58.35264205932617,Left
3049.72119140625,17222,1,1756.0,1737.0,1742.0,1707.0,1703.0,1753.0,1758.0,1735.0,-123.38446807861328,-8.456046104431152,-58.35264205932617,Left
3042.1611328125,17223,1,1764.0,1686.0,1749.0,1769.0,1739.0,1753.0,1759.0,1749.0,-123.38446807861328,-8.456046104431152,-58.35264205932617,Left
3044.1611328125,17223,1,1757.0,1696.0,1767.0,1814.0,1751.0,1751.0,1755.0,1756.0,-123.38446807861328,-8.456046104431152,-58.35264205932617,Left
3046.1611328125,17223,1,1769.0,1821.0,1767.0,1839.0,1784.0,1746.0,1758.0,1763.0,-123.38446807861328,-8.456046104431152,-58.35264205932617,Left
3048.1611328125,17223,1,1783.0,1879.0,1783.0,1791.0,1791.0,1752.0,1757.0,1759.0,-123.38446807861328,-8.456046104431152,-58.35264205932617,Left
3050.1611328125,17223,1,1755.0,1840.0,1749.0,1753.0,1811.0,1749.0,1757.0,1709.0,-123.38446807861328,-8.456046104431152,-58.35264205932617,Left
3061.456298828125,17224,1,1715.0,1626.0,1709.0,1565.0,1662.0,1741.0,1758.0,1741.0,-123.38446807861328,-8.456046104431152,-58.35264205932617,Left
3063.456298828125,17224,1,1763.0,1705.0,1759.0,1770.0,1707.0,1753.0,1763.0,1754.0,-123.38446807861328,-8.456046104431152,-58.35264205932617,Left
3065.456298828125,17224,1,1755.0,1811.0,1764.0,1791.0,1753.0,1749.0,1753.0,1752.0,-123.38446807861328,-8.456046104431152,-58.35264205932617,Left
3067.456298828125,17224,1,1758.0,1786.0,1767.0,1786.0,1755.0,1745.0,1758.0,1757.0,-123.38446807861328,-8.456046104431152,-58.35264205932617,Left
3069.456298828125,17224,1,1753.0,1772.0,1767.0,1785.0,1747.0,1751.0,1759.0,1763.0,-123.38446807861328,-8.456046104431152,-58.35264205932617,Left
3062.09423828125,17225,1,1771.0,1716.0,1773.0,1771.0,1774.0,1749.0,1761.0,1761.0,-123.38446807861328,-8.456046104431152,-58.35264205932617,Left
3064.09423828125,17225,1,1757.0,1783.0,1752.0,1803.0,1781.0,1746.0,1759.0,1737.0,-123.38446807861328,-8.456046104431152,-58.35264205932617,Left
3066.09423828125,17225,1,1761.0,1839.0,1743.0,1779.0,1735.0,1752.0,1761.0,1745.0,-123.38446807861328,-8.456046104431152,-58.35264205932617,Left
3068.09423828125,17225,1,1753.0,1739.0,1755.0,1720.0,1711.0,1751.0,1757.0,1751.0,-123.38446807861328,-8.456046104431152,-58.35264205932617,Left
3070.09423828125,17225,1,1736.0,1683.0,1727.0,1654.0,1703.0,1749.0,1757.0,1721.0,-123.38446807861328,-8.456046104431152,-58.35264205932617,Left
3078.358154296875,17226,1,1742.0,1741.0,1751.0,1770.0,1771.0,1747.0,1767.0,1753.0,-123.38446807861328,-8.456046104431152,-58.35264205932617,Left
3080.358154296875,17226,1,1770.0,1802.0,1763.0,1757.0,1767.0,1749.0,1762.0,1754.0,-123.38446807861328,-8.456046104431152,-58.35264205932617,Left
3082.358154296875,17226,1,1759.0,1816.0,1765.0,1779.0,1763.0,1752.0,1764.0,1754.0,-123.38446807861328,-8.456046104431152,-58.35264205932617,Left
3084.358154296875,17226,1,1781.0,1789.0,1775.0,1785.0,1765.0,1746.0,1761.0,1772.0,-123.38446807861328,-8.456046104431152,-58.35264205932617,Left
3086.358154296875,17226,1,1769.0,1807.0,1767.0,1819.0,1783.0,1747.0,1759.0,1767.0,-123.38446807861328,-8.456046104431152,-58.35264205932617,Left
3086.89111328125,17227,1,1726.0,1727.0,1737.0,1691.0,1742.0,1745.0,1757.0,1717.0,-123.79056549072266,-8.520922660827637,-58.10246658325195,Left
3088.89111328125,17227,1,1734.0,1685.0,1743.0,1711.0,1710.0,1752.0,1763.0,1746.0,-123.79056549072266,-8.520922660827637,-58.10246658325195,Left
3090.89111328125,17227,1,1801.0,1817.0,1780.0,1801.0,1807.0,1750.0,1761.0,1765.0,-123.79056549072266,-8.520922660827637,-58.10246658325195,Left
3092.89111328125,17227,1,1769.0,1791.0,1757.0,1775.0,1749.0,1747.0,1755.0,1752.0,-123.79056549072266,-8.520922660827637,-58.10246658325195,Left
3094.89111328125,17227,1,1725.0,1717.0,1736.0,1710.0,1707.0,1753.0,1757.0,1747.0,-123.79056549072266,-8.520922660827637,-58.10246658325195,Left
3090.478271484375,17228,1,1753.0,1720.0,1751.0,1774.0,1751.0,1752.0,1759.0,1756.0,-123.79056549072266,-8.520922660827637,-58.10246658325195,Left
3092.478271484375,17228,1,1767.0,1867.0,1769.0,1813.0,1801.0,1752.0,1759.0,1742.0,-123.79056549072266,-8.520922660827637,-58.10246658325195,Left
3094.478271484375,17228,1,1746.0,1708.0,1747.0,1715.0,1695.0,1751.0,1763.0,1745.0,-123.79056549072266,-8.520922660827637,-58.10246658325195,Left
3096.478271484375,17228,1,1748.0,1720.0,1755.0,1772.0,1740.0,1751.0,1759.0,1754.0,-123.79056549072266,-8.520922660827637,-58.10246658325195,Left
3098.478271484375,17228,1,1743.0,1762.0,1767.0,1781.0,1775.0,1752.0,1756.0,1752.0,-123.79056549072266,-8.520922660827637,-58.10246658325195,Left
3106.46044921875,17229,1,1756.0,1773.0,1752.0,1757.0,1763.0,1751.0,1763.0,1753.0,-123.79056549072266,-8.520922660827637,-58.10246658325195,Left
3108.46044921875,17229,1,1747.0,1727.0,1747.0,1765.0,1749.0,1751.0,1763.0,1735.0,-123.79056549072266,-8.520922660827637,-58.10246658325195,Left
3110.46044921875,17229,1,1750.0,1699.0,1751.0,1677.0,1705.0,1747.0,1759.0,1747.0,-123.79056549072266,-8.520922660827637,-58.10246658325195,Left
3112.46044921875,17229,1,1758.0,1761.0,1756.0,1767.0,1767.0,1747.0,1753.0,1762.0,-123.79056549072266,-8.520922660827637,-58.10246658325195,Left
3114.46044921875,17229,1,1772.0,1892.0,1774.0,1853.0,1821.0,1751.0,1757.0,1769.0,-123.79056549072266,-8.520922660827637,-58.10246658325195,Left
3112.044189453125,17230,1,1759.0,1827.0,1741.0,1755.0,1723.0,1752.0,1757.0,1721.0,-123.79056549072266,-8.520922660827637,-58.10246658325195,Left
3114.044189453125,17230,1,1725.0,1717.0,1747.0,1709.0,1659.0,1753.0,1761.0,1752.0,-123.79056549072266,-8.520922660827637,-58.10246658325195,Left
3116.044189453125,17230,1,1756.0,1548.0,1751.0,1608.0,1673.0,1751.0,1755.0,1728.0,-123.79056549072266,-8.520922660827637,-58.10246658325195,Left
3118.044189453125,17230,1,1755.0,1754.0,1753.0,1771.0,1803.0,1751.0,1755.0,1765.0,-123.79056549072266,-8.520922660827637,-58.10246658325195,Left
3120.044189453125,17230,1,1779.0,1821.0,1747.0,1781.0,1797.0,1751.0,1755.0,1749.0,-123.79056549072266,-8.520922660827637,-58.10246658325195,Left
3141.684326171875,17231,1,1749.0,1725.0,1753.0,1765.0,1659.0,1751.0,1757.0,1750.0,-123.79056549072266,-8.520922660827637,-58.10246658325195,Left
3143.684326171875,17231,1,1771.0,1741.0,1765.0,1783.0,1778.0,1753.0,1763.0,1752.0,-123.79056549072266,-8.520922660827637,-58.10246658325195,Left
3145.684326171875,17231,1,1772.0,1823.0,1763.0,1758.0,1787.0,1747.0,1759.0,1755.0,-123.79056549072266,-8.520922660827637,-58.10246658325195,Left
3147.684326171875,17231,1,1756.0,1781.0,1763.0,1781.0,1779.0,1753.0,1759.0,1739.0,-123.79056549072266,-8.520922660827637,-58.10246658325195,Left
3149.684326171875,17231,1,1747.0,1807.0,1753.0,1780.0,1721.0,1745.0,1763.0,1737.0,-123.79056549072266,-8.520922660827637,-58.10246658325195,Left
3142.43408203125,17232,1,1763.0,1770.0,1767.0,1764.0,1741.0,1751.0,1759.0,1755.0,-123.79056549072266,-8.520922660827637,-58.10246658325195,Left
3144.43408203125,17232,1,1763.0,1784.0,1759.0,1772.0,1753.0,1752.0,1753.0,1751.0,-123.79056549072266,-8.520922660827637,-58.10246658325195,Left
3146.43408203125,17232,1,1767.0,1733.0,1757.0,1677.0,1705.0,1753.0,1757.0,1737.0,-123.79056549072266,-8.520922660827637,-58.10246658325195,Left
3148.43408203125,17232,1,1759.0,1702.0,1765.0,1735.0,1747.0,1751.0,1759.0,1753.0,-123.79056549072266,-8.520922660827637,-58.10246658325195,Left
3150.43408203125,17232,1,1755.0,1779.0,1763.0,1829.0,1756.0,1753.0,1759.0,1753.0,-123.79056549072266,-8.520922660827637,-58.10246658325195,Left
3142.80224609375,17233,1,1719.0,1907.0,1751.0,1797.0,1805.0,1749.0,1761.0,1737.0,-123.79056549072266,-8.520922660827637,-58.10246658325195,Left
3144.80224609375,17233,1,1741.0,1693.0,1743.0,1759.0,1785.0,1749.0,1757.0,1741.0,-123.76153564453125,-8.671333312988281,-57.97279357910156,Left
3146.80224609375,17233,1,1785.0,1765.0,1773.0,1753.0,1743.0,1749.0,1757.0,1755.0,-123.76153564453125,-8.671333312988281,-57.97279357910156,Left
3148.80224609375,17233,1,1740.0,1689.0,1727.0,1642.0,1717.0,1753.0,1753.0,1733.0,-123.76153564453125,-8.671333312988281,-57.97279357910156,Left
3150.80224609375,17233,1,1747.0,1707.0,1736.0,1739.0,1701.0,1751.0,1757.0,1740.0,-123.76153564453125,-8.671333312988281,-57.97279357910156,Left
3161.379150390625,17234,1,1774.0,1757.0,1765.0,1775.0,1748.0,1750.0,1759.0,1754.0,-123.76153564453125,-8.671333312988281,-57.97279357910156,Left
3163.379150390625,17234,1,1764.0,1831.0,1767.0,1809.0,1805.0,1752.0,1755.0,1759.0,-123.76153564453125,-8.671333312988281,-57.97279357910156,Left
3165.379150390625,17234,1,1767.0,1805.0,1762.0,1787.0,1765.0,1752.0,1763.0,1751.0,-123.76153564453125,-8.671333312988281,-57.97279357910156,Left
3167.379150390625,17234,1,1767.0,1691.0,1775.0,1762.0,1689.0,1745.0,1763.0,1763.0,-123.76153564453125,-8.671333312988281,-57.97279357910156,Left
3169.379150390625,17234,1,1775.0,1746.0,1771.0,1741.0,1811.0,1751.0,1756.0,1757.0,-123.76153564453125,-8.671333312988281,-57.97279357910156,Left
3167.399169921875,17235,1,1755.0,1911.0,1722.0,1775.0,1843.0,1749.0,1755.0,1696.0,-123.76153564453125,-8.671333312988281,-57.97279357910156,Left
3169.399169921875,17235,1,1725.0,1757.0,1711.0,1695.0,1683.0,1752.0,1763.0,1715.0,-123.76153564453125,-8.671333312988281,-57.97279357910156,Left
3171.399169921875,17235,1,1735.0,1397.0,1734.0,1635.0,1520.0,1751.0,1757.0,1721.0,-123.76153564453125,-8.671333312988281,-57.97279357910156,Left
3173.399169921875,17235,1,1771.0,1847.0,1764.0,1805.0,1801.0,1749.0,1761.0,1755.0,-123.76153564453125,-8.671333312988281,-57.97279357910156,Left
3175.399169921875,17235,1,1759.0,1871.0,1765.0,1801.0,1783.0,1753.0,1758.0,1755.0,-123.76153564453125,-8.671333312988281,-57.97279357910156,Left
3189.817138671875,17236,1,1773.0,1781.0,1773.0,1775.0,1762.0,1750.0,1759.0,1762.0,-123.76153564453125,-8.671333312988281,-57.97279357910156,Left
3191.817138671875,17236,1,1779.0,1781.0,1773.0,1769.0,1783.0,1751.0,1758.0,1755.0,-123.76153564453125,-8.671333312988281,-57.97279357910156,Left
3193.817138671875,17236,1,1747.0,1737.0,1753.0,1757.0,1769.0,1739.0,1765.0,1747.0,-123.76153564453125,-8.671333312988281,-57.97279357910156,Left
3195.817138671875,17236,1,1746.0,1773.0,1748.0,1715.0,1734.0,1751.0,1763.0,1739.0,-123.76153564453125,-8.671333312988281,-57.97279357910156,Left
3197.817138671875,17236,1,1755.0,1803.0,1763.0,1785.0,1788.0,1747.0,1758.0,1747.0,-123.76153564453125,-8.671333312988281,-57.97279357910156,Left
3190.464111328125,17237,1,1769.0,1846.0,1757.0,1799.0,1831.0,1753.0,1759.0,1755.0,-123.76153564453125,-8.671333312988281,-57.97279357910156,Left
3192.464111328125,17237,1,1751.0,1653.0,1741.0,1687.0,1677.0,1749.0,1758.0,1725.0,-123.76153564453125,-8.671333312988281,-57.97279357910156,Left
3194.464111328125,17237,1,1739.0,1584.0,1753.0,1675.0,1619.0,1750.0,1756.0,1742.0,-123.76153564453125,-8.671333312988281,-57.97279357910156,Left
3196.464111328125,17237,1,1753.0,1801.0,1756.0,1785.0,1737.0,1750.0,1759.0,1741.0,-123.76153564453125,-8.671333312988281,-57.97279357910156,Left
3198.464111328125,17237,1,1791.0,1801.0,1759.0,1772.0,1817.0,1750.0,1762.0,1767.0,-123.76153564453125,-8.671333312988281,-57.97279357910156,Left
3202.753173828125,17238,1,1765.0,1802.0,1757.0,1773.0,1767.0,1746.0,1757.0,1746.0,-123.76153564453125,-8.671333312988281,-57.97279357910156,Left
3204.753173828125,17238,1,1762.0,1807.0,1767.0,1764.0,1755.0,1746.0,1759.0,1751.0,-123.76153564453125,-8.671333312988281,-57.97279357910156,Left
3206.753173828125,17238,1,1743.0,1805.0,1765.0,1784.0,1768.0,1743.0,1759.0,1758.0,-123.76153564453125,-8.671333312988281,-57.97279357910156,Left
3208.753173828125,17238,1,1767.0,1811.0,1771.0,1823.0,1769.0,1749.0,1758.0,1767.0,-123.76153564453125,-8.671333312988281,-57.97279357910156,Left
3210.753173828125,17238,1,1787.0,1799.0,1779.0,1773.0,1817.0,1744.0,1763.0,1740.0,-123.76153564453125,-8.671333312988281,-57.97279357910156,Left
3203.72216796875,17239,1,1722.0,1661.0,1715.0,1641.0,1659.0,1752.0,1755.0,1719.0,-123.76153564453125,-8.671333312988281,-57.97279357910156,Left
3205.72216796875,17239,1,1761.0,1661.0,1750.0,1741.0,1716.0,1749.0,1765.0,1742.0,-123.76153564453125,-8.671333312988281,-57.97279357910156,Left
3207.72216796875,17239,1,1755.0,1759.0,1749.0,1770.0,1752.0,1752.0,1763.0,1752.0,-123.76153564453125,-8.671333312988281,-57.97279357910156,Left
3209.72216796875,17239,1,1751.0,1767.0,1755.0,1754.0,1767.0,1753.0,1757.0,1755.0,-124.23457336425781,-8.899322509765625,-57.91991424560547,Left
3211.72216796875,17239,1,1771.0,1843.0,1765.0,1830.0,1782.0,1747.0,1757.0,1753.0,-124.23457336425781,-8.899322509765625,-57.91991424560547,Left
3250.35107421875,17240,1,1765.0,1683.0,1753.0,1688.0,1737.0,1750.0,1757.0,1753.0,-124.23457336425781,-8.899322509765625,-57.91991424560547,Left
3252.35107421875,17240,1,1775.0,1735.0,1764.0,1689.0,1715.0,1747.0,1754.0,1749.0,-124.23457336425781,-8.899322509765625,-57.91991424560547,Left
3254.35107421875,17240,1,1751.0,1739.0,1755.0,1753.0,1709.0,1753.0,1757.0,1739.0,-124.23457336425781,-8.899322509765625,-57.91991424560547,Left
3256.35107421875,17240,1,1765.0,1767.0,1757.0,1749.0,1740.0,1751.0,1755.0,1740.0,-124.23457336425781,-8.899322509765625,-57.91991424560547,Left
3258.35107421875,17240,1,1763.0,1735.0,1748.0,1776.0,1764.0,1749.0,1758.0,1741.0,-124.23457336425781,-8.899322509765625,-57.91991424560547,Left
3251.26220703125,17241,1,1755.0,1799.0,1740.0,1783.0,1767.0,1751.0,1759.0,1755.0,-124.23457336425781,-8.899322509765625,-57.91991424560547,Left
3253.26220703125,17241,1,1764.0,1761.0,1763.0,1783.0,1747.0,1752.0,1759.0,1765.0,-124.23457336425781,-8.899322509765625,-57.91991424560547,Left
3255.26220703125,17241,1,1771.0,1803.0,1769.0,1791.0,1757.0,1753.0,1752.0,1765.0,-124.23457336425781,-8.899322509765625,-57.91991424560547,Left
3257.26220703125,17241,1,1765.0,1723.0,1749.0,1674.0,1747.0,1743.0,1759.0,1748.0,-124.23457336425781,-8.899322509765625,-57.91991424560547,Left
3259.26220703125,17241,1,1750.0,1735.0,1747.0,1753.0,1737.0,1751.0,1763.0,1736.0,-124.23457336425781,-8.899322509765625,-57.91991424560547,Left
3251.722412109375,17242,1,1749.0,1845.0,1743.0,1781.0,1765.0,1750.0,1763.0,1741.0,-124.23457336425781,-8.899322509765625,-57.91991424560547,Left
3253.722412109375,17242,1,1775.0,1885.0,1785.0,1929.0,1791.0,1751.0,1763.0,1775.0,-124.23457336425781,-8.899322509765625,-57.91991424560547,Left
3255.722412109375,17242,1,1791.0,1800.0,1785.0,1746.0,1801.0,1751.0,1763.0,1741.0,-124.23457336425781,-8.899322509765625,-57.91991424560547,Left
3257.722412109375,17242,1,1724.0,1467.0,1711.0,1545.0,1638.0,1753.0,1763.0,1707.0,-124.23457336425781,-8.899322509765625,-57.91991424560547,Left
3259.722412109375,17242,1,1721.0,1755.0,1739.0,1723.0,1742.0,1747.0,1763.0,1737.0,-124.23457336425781,-8.899322509765625,-57.91991424560547,Left
3252.22021484375,17243,1,1771.0,1816.0,1763.0,1805.0,1803.0,1751.0,1753.0,1762.0,-124.23457336425781,-8.899322509765625,-57.91991424560547,Left
3254.22021484375,17243,1,1765.0,1769.0,1755.0,1757.0,1775.0,1751.0,1763.0,1743.0,-124.23457336425781,-8.899322509765625,-57.91991424560547,Left
3256.22021484375,17243,1,1755.0,1781.0,1771.0,1799.0,1700.0,1751.0,1761.0,1741.0,-124.23457336425781,-8.899322509765625,-57.91991424560547,Left
3258.22021484375,17243,1,1753.0,1775.0,1764.0,1780.0,1750.0,1752.0,1755.0,1748.0,-124.23457336425781,-8.899322509765625,-57.91991424560547,Left
3260.22021484375,17243,1,1767.0,1771.0,1763.0,1759.0,1740.0,1750.0,1752.0,1757.0,-124.23457336425781,-8.899322509765625,-57.91991424560547,Left
3265.205078125,17244,1,1751.0,1709.0,1752.0,1725.0,1733.0,1751.0,1752.0,1742.0,-124.23457336425781,-8.899322509765625,-57.91991424560547,Left
3267.205078125,17244,1,1742.0,1816.0,1748.0,1769.0,1763.0,1754.0,1756.0,1739.0,-124.23457336425781,-8.899322509765625,-57.91991424560547,Left
3269.205078125,17244,1,1767.0,1775.0,1766.0,1785.0,1754.0,1751.0,1759.0,1763.0,-124.23457336425781,-8.899322509765625,-57.91991424560547,Left
3271.205078125,17244,1,1764.0,1756.0,1749.0,1715.0,1737.0,1753.0,1755.0,1757.0,-124.23457336425781,-8.899322509765625,-57.91991424560547,Left
3273.205078125,17244,1,1746.0,1733.0,1763.0,1784.0,1735.0,1745.0,1763.0,1735.0,-124.23457336425781,-8.899322509765625,-57.91991424560547,Left
3287.13525390625,17245,1,1758.0,1773.0,1736.0,1733.0,1797.0,1767.0,1763.0,1742.0,-124.23457336425781,-8.899322509765625,-57.91991424560547,Left
3289.13525390625,17245,1,1747.0,1821.0,1741.0,1805.0,1771.0,1750.0,1763.0,1749.0,-124.23457336425781,-8.899322509765625,-57.91991424560547,Left
3291.13525390625,17245,1,1765.0,1683.0,1755.0,1707.0,1711.0,1749.0,1753.0,1756.0,-124.23457336425781,-8.899322509765625,-57.91991424560547,Left
3293.13525390625,17245,1,1753.0,1721.0,1756.0,1723.0,1771.0,1741.0,1754.0,1763.0,-124.23457336425781,-8.899322509765625,-57.91991424560547,Left
3295.13525390625,17245,1,1772.0,1787.0,1759.0,1767.0,1765.0,1752.0,1765.0,1737.0,-124.23457336425781,-8.899322509765625,-57.91991424560547,Left
3287.7451171875,17246,1,1740.0,1725.0,1740.0,1719.0,1703.0,1749.0,1762.0,1741.0,-124.23457336425781,-8.899322509765625,-57.91991424560547,Left
3289.7451171875,17246,1,1759.0,1753.0,1763.0,1759.0,1749.0,1751.0,1759.0,1754.0,-124.42472076416016,-9.002660751342773,-57.83872604370117,Left
3291.7451171875,17246,1,1759.0,1735.0,1755.0,1797.0,1704.0,1749.0,1763.0,1749.0,-124.42472076416016,-9.002660751342773,-57.83872604370117,Left
3293.7451171875,17246,1,1757.0,1778.0,1751.0,1765.0,1751.0,1752.0,1761.0,1752.0,-124.42472076416016,-9.002660751342773,-57.83872604370117,Left
3295.7451171875,17246,1,1765.0,1727.0,1767.0,1789.0,1767.0,1749.0,1758.0,1754.0,-124.42472076416016,-9.002660751342773,-57.83872604370117,Left
3300.84521484375,17247,1,1761.0,1747.0,1741.0,1743.0,1763.0,1747.0,1762.0,1739.0,-124.42472076416016,-9.002660751342773,-57.83872604370117,Left
3302.84521484375,17247,1,1747.0,1659.0,1743.0,1685.0,1714.0,1749.0,1757.0,1742.0,-124.42472076416016,-9.002660751342773,-57.83872604370117,Left
3304.84521484375,17247,1,1743.0,1783.0,1745.0,1765.0,1763.0,1749.0,1761.0,1757.0,-124.42472076416016,-9.002660751342773,-57.83872604370117,Left
3306.84521484375,17247,1,1757.0,1765.0,1759.0,1769.0,1751.0,1752.0,1758.0,1753.0,-124.42472076416016,-9.002660751342773,-57.83872604370117,Left
3308.84521484375,17247,1,1755.0,1753.0,1757.0,1757.0,1751.0,1753.0,1758.0,1755.0,-124.42472076416016,-9.002660751342773,-57.83872604370117,Left
3301.50732421875,17248,1,1773.0,1835.0,1771.0,1811.0,1757.0,1750.0,1759.0,1763.0,-124.42472076416016,-9.002660751342773,-57.83872604370117,Left
3303.50732421875,17248,1,1775.0,1867.0,1768.0,1792.0,1799.0,1753.0,1759.0,1747.0,-124.42472076416016,-9.002660751342773,-57.83872604370117,Left
3305.50732421875,17248,1,1735.0,1709.0,1721.0,1681.0,1675.0,1751.0,1763.0,1717.0,-124.42472076416016,-9.002660751342773,-57.83872604370117,Left
3307.50732421875,17248,1,1751.0,1722.0,1748.0,1735.0,1738.0,1749.0,1761.0,1725.0,-124.42472076416016,-9.002660751342773,-57.83872604370117,Left
3309.50732421875,17248,1,1781.0,1811.0,1765.0,1791.0,1831.0,1751.0,1765.0,1767.0,-124.42472076416016,-9.002660751342773,-57.83872604370117,Left
3305.508056640625,17249,1,1765.0,1819.0,1775.0,1819.0,1763.0,1747.0,1761.0,1751.0,-124.42472076416016,-9.002660751342773,-57.83872604370117,Left
3307.508056640625,17249,1,1754.0,1677.0,1751.0,1725.0,1719.0,1751.0,1759.0,1749.0,-124.42472076416016,-9.002660751342773,-57.83872604370117,Left
3309.508056640625,17249,1,1769.0,1657.0,1757.0,1696.0,1721.0,1753.0,1757.0,1753.0,-124.42472076416016,-9.002660751342773,-57.83872604370117,Left
3311.508056640625,17249,1,1756.0,1829.0,1753.0,1787.0,1771.0,1751.0,1759.0,1745.0,-124.42472076416016,-9.002660751342773,-57.83872604370117,Left
3313.508056640625,17249,1,1757.0,1811.0,1752.0,1769.0,1765.0,1752.0,1758.0,1747.0,-124.42472076416016,-9.002660751342773,-57.83872604370117,Left
3321.99609375,17250,1,1755.0,1721.0,1753.0,1752.0,1689.0,1751.0,1758.0,1749.0,-124.42472076416016,-9.002660751342773,-57.83872604370117,Left
3323.99609375,17250,1,1775.0,1823.0,1770.0,1799.0,1783.0,1751.0,1763.0,1766.0,-124.42472076416016,-9.002660751342773,-57.83872604370117,Left
3325.99609375,17250,1,1773.0,1785.0,1759.0,1737.0,1719.0,1746.0,1763.0,1747.0,-124.42472076416016,-9.002660751342773,-57.83872604370117,Left
3327.99609375,17250,1,1759.0,1739.0,1759.0,1749.0,1752.0,1753.0,1757.0,1733.0,-124.42472076416016,-9.002660751342773,-57.83872604370117,Left
3329.99609375,17250,1,1738.0,1835.0,1723.0,1743.0,1805.0,1747.0,1763.0,1749.0,-124.42472076416016,-9.002660751342773,-57.83872604370117,Left
3336.79638671875,17251,1,1775.0,1786.0,1768.0,1765.0,1773.0,1749.0,1762.0,1755.0,-124.42472076416016,-9.002660751342773,-57.83872604370117,Left
3338.79638671875,17251,1,1758.0,1715.0,1753.0,1772.0,1708.0,1751.0,1762.0,1749.0,-124.42472076416016,-9.002660751342773,-57.83872604370117,Left
3340.79638671875,17251,1,1749.0,1657.0,1753.0,1755.0,1647.0,1745.0,1762.0,1743.0,-124.42472076416016,-9.002660751342773,-57.83872604370117,Left
3342.79638671875,17251,1,1737.0,1683.0,1743.0,1653.0,1693.0,1753.0,1757.0,1727.0,-124.42472076416016,-9.002660751342773,-57.83872604370117,Left
3344.79638671875,17251,1,1764.0,1812.0,1772.0,1811.0,1769.0,1751.0,1763.0,1743.0,-124.42472076416016,-9.002660751342773,-57.83872604370117,Left
3350.519287109375,17252,1,1769.0,1803.0,1755.0,1765.0,1817.0,1750.0,1757.0,1754.0,-124.42472076416016,-9.002660751342773,-57.83872604370117,Left
3352.519287109375,17252,1,1767.0,1815.0,1770.0,1799.0,1773.0,1752.0,1763.0,1742.0,-124.42472076416016,-9.002660751342773,-57.83872604370117,Left
3354.519287109375,17252,1,1755.0,1736.0,1743.0,1758.0,1695.0,1742.0,1748.0,1763.0,-124.42472076416016,-9.002660751342773,-57.83872604370117,Left
3356.519287109375,17252,1,1771.0,1847.0,1769.0,1797.0,1799.0,1750.0,1757.0,1761.0,-124.27527618408203,-9.06570816040039,-57.759544372558594,Left
3358.519287109375,17252,1,1753.0,1739.0,1749.0,1709.0,1741.0,1749.0,1761.0,1747.0,-124.27527618408203,-9.06570816040039,-57.759544372558594,Left
3351.294189453125,17253,1,1749.0,1733.0,1740.0,1725.0,1737.0,1749.0,1753.0,1721.0,-124.27527618408203,-9.06570816040039,-57.759544372558594,Left
3353.294189453125,17253,1,1768.0,1716.0,1763.0,1801.0,1757.0,1746.0,1759.0,1759.0,-124.27527618408203,-9.06570816040039,-57.759544372558594,Left
3355.294189453125,17253,1,1767.0,1785.0,1769.0,1780.0,1727.0,1748.0,1762.0,1759.0,-124.27527618408203,-9.06570816040039,-57.759544372558594,Left
3357.294189453125,17253,1,1764.0,1749.0,1745.0,1711.0,1736.0,1753.0,1757.0,1737.0,-124.27527618408203,-9.06570816040039,-57.759544372558594,Left
3359.294189453125,17253,1,1751.0,1833.0,1739.0,1767.0,1774.0,1753.0,1763.0,1739.0,-124.27527618408203,-9.06570816040039,-57.759544372558594,Left
3351.73046875,17254,1,1762.0,1727.0,1752.0,1737.0,1774.0,1749.0,1759.0,1739.0,-124.27527618408203,-9.06570816040039,-57.759544372558594,Left
3353.73046875,17254,1,1789.0,1804.0,1771.0,1762.0,1765.0,1751.0,1758.0,1748.0,-124.27527618408203,-9.06570816040039,-57.759544372558594,Left
3355.73046875,17254,1,1751.0,1750.0,1765.0,1785.0,1707.0,1742.0,1759.0,1745.0,-124.27527618408203,-9.06570816040039,-57.759544372558594,Left
3357.73046875,17254,1,1752.0,1747.0,1751.0,1766.0,1723.0,1755.0,1757.0,1759.0,-124.27527618408203,-9.06570816040039,-57.759544372558594,Left
3359.73046875,17254,1,1757.0,1701.0,1751.0,1691.0,1743.0,1750.0,1757.0,1756.0,-124.27527618408203,-9.06570816040039,-57.759544372558594,Left
3477.53125,17255,1,1763.0,1723.0,1751.0,1763.0,1752.0,1752.0,1757.0,1739.0,-124.27527618408203,-9.06570816040039,-57.759544372558594,Left
3479.53125,17255,1,1765.0,1743.0,1763.0,1743.0,1740.0,1752.0,1763.0,1749.0,-124.27527618408203,-9.06570816040039,-57.759544372558594,Left
3481.53125,17255,1,1757.0,1749.0,1752.0,1748.0,1752.0,1751.0,1758.0,1752.0,-124.27527618408203,-9.06570816040039,-57.759544372558594,Left
3483.53125,17255,1,1746.0,1787.0,1748.0,1753.0,1737.0,1753.0,1759.0,1747.0,-124.27527618408203,-9.06570816040039,-57.759544372558594,Left
3485.53125,17255,1,1751.0,1773.0,1762.0,1755.0,1753.0,1753.0,1758.0,1746.0,-124.27527618408203,-9.06570816040039,-57.759544372558594,Left
3478.10400390625,17256,1,1759.0,1827.0,1753.0,1771.0,1774.0,1749.0,1759.0,1752.0,-124.27527618408203,-9.06570816040039,-57.759544372558594,Left
3480.10400390625,17256,1,1755.0,1770.0,1757.0,1765.0,1764.0,1752.0,1753.0,1747.0,-124.27527618408203,-9.06570816040039,-57.759544372558594,Left
3482.10400390625,17256,1,1771.0,1743.0,1755.0,1719.0,1737.0,1751.0,1758.0,1749.0,-124.27527618408203,-9.06570816040039,-57.759544372558594,Left
3484.10400390625,17256,1,1739.0,1719.0,1755.0,1746.0,1710.0,1751.0,1763.0,1741.0,-124.27527618408203,-9.06570816040039,-57.759544372558594,Left
3486.10400390625,17256,1,1739.0,1684.0,1741.0,1725.0,1701.0,1747.0,1764.0,1739.0,-124.27527618408203,-9.06570816040039,-57.759544372558594,Left
3478.703369140625,17257,1,1763.0,1737.0,1753.0,1721.0,1749.0,1749.0,1753.0,1752.0,-124.27527618408203,-9.06570816040039,-57.759544372558594,Left
3480.703369140625,17257,1,1779.0,1693.0,1755.0,1769.0,1757.0,1752.0,1762.0,1751.0,-124.27527618408203,-9.06570816040039,-57.759544372558594,Left
3482.703369140625,17257,1,1763.0,1734.0,1759.0,1788.0,1727.0,1747.0,1757.0,1755.0,-124.27527618408203,-9.06570816040039,-57.759544372558594,Left
3484.703369140625,17257,1,1751.0,1751.0,1750.0,1693.0,1755.0,1751.0,1757.0,1741.0,-124.27527618408203,-9.06570816040039,-57.759544372558594,Left
3486.703369140625,17257,1,1754.0,1723.0,1755.0,1752.0,1737.0,1749.0,1758.0,1753.0,-124.27527618408203,-9.06570816040039,-57.759544372558594,Left
3479.194091796875,17258,1,1754.0,1892.0,1747.0,1783.0,1790.0,1746.0,1763.0,1736.0,-124.27527618408203,-9.06570816040039,-57.759544372558594,Left
3481.194091796875,17258,1,1760.0,1829.0,1757.0,1751.0,1747.0,1743.0,1762.0,1753.0,-124.27527618408203,-9.06570816040039,-57.759544372558594,Left
3483.194091796875,17258,1,1759.0,1715.0,1767.0,1783.0,1708.0,1750.0,1763.0,1755.0,-124.27527618408203,-9.06570816040039,-57.759544372558594,Left
3485.194091796875,17258,1,1753.0,1736.0,1755.0,1724.0,1737.0,1751.0,1757.0,1741.0,-124.27527618408203,-9.06570816040039,-57.759544372558594,Left
3487.194091796875,17258,1,1751.0,1797.0,1754.0,1765.0,1765.0,1751.0,1763.0,1741.0,-124.27527618408203,-9.06570816040039,-57.759544372558594,Left
3479.6611328125,17259,1,1765.0,1763.0,1770.0,1801.0,1784.0,1753.0,1758.0,1759.0,-124.27527618408203,-9.06570816040039,-57.759544372558594,Left
3481.6611328125,17259,1,1755.0,1718.0,1757.0,1739.0,1741.0,1752.0,1762.0,1753.0,-124.3762435913086,-9.150449752807617,-57.7872200012207,Left
3483.6611328125,17259,1,1764.0,1771.0,1755.0,1757.0,1774.0,1752.0,1758.0,1742.0,-124.3762435913086,-9.150449752807617,-57.7872200012207,Left
3485.6611328125,17259,1,1747.0,1695.0,1748.0,1738.0,1707.0,1751.0,1763.0,1735.0,-124.3762435913086,-9.150449752807617,-57.7872200012207,Left
3487.6611328125,17259,1,1757.0,1742.0,1763.0,1765.0,1751.0,1751.0,1759.0,1756.0,-124.3762435913086,-9.150449752807617,-57.7872200012207,Left
3480.01708984375,17260,1,1769.0,1762.0,1763.0,1757.0,1737.0,1753.0,1759.0,1751.0,-124.3762435913086,-9.150449752807617,-57.7872200012207,Left
3482.01708984375,17260,1,1755.0,1735.0,1749.0,1768.0,1695.0,1752.0,1758.0,1749.0,-124.3762435913086,-9.150449752807617,-57.7872200012207,Left
3484.01708984375,17260,1,1771.0,1767.0,1752.0,1751.0,1775.0,1753.0,1759.0,1745.0,-124.3762435913086,-9.150449752807617,-57.7872200012207,Left
3486.01708984375,17260,1,1748.0,1763.0,1757.0,1767.0,1763.0,1747.0,1759.0,1754.0,-124.3762435913086,-9.150449752807617,-57.7872200012207,Left
3488.01708984375,17260,1,1766.0,1835.0,1769.0,1847.0,1789.0,1740.0,1762.0,1759.0,-124.3762435913086,-9.150449752807617,-57.7872200012207,Left
3480.400146484375,17261,1,1749.0,1745.0,1750.0,1684.0,1756.0,1747.0,1758.0,1735.0,-124.3762435913086,-9.150449752807617,-57.7872200012207,Left
3482.400146484375,17261,1,1749.0,1638.0,1741.0,1711.0,1721.0,1752.0,1758.0,1740.0,-124.3762435913086,-9.150449752807617,-57.7872200012207,Left
3484.400146484375,17261,1,1752.0,1805.0,1763.0,1799.0,1767.0,1738.0,1741.0,1740.0,-124.3762435913086,-9.150449752807617,-57.7872200012207,Left
3486.400146484375,17261,1,1771.0,1835.0,1773.0,1851.0,1771.0,1746.0,1757.0,1745.0,-124.3762435913086,-9.150449752807617,-57.7872200012207,Left
3488.400146484375,17261,1,1756.0,1788.0,1749.0,1719.0,1781.0,1752.0,1753.0,1743.0,-124.3762435913086,-9.150449752807617,-57.7872200012207,Left
3480.739013671875,17262,1,1757.0,1779.0,1752.0,1720.0,1739.0,1751.0,1763.0,1741.0,-124.3762435913086,-9.150449752807617,-57.7872200012207,Left
3482.739013671875,17262,1,1767.0,1797.0,1755.0,1763.0,1764.0,1751.0,1763.0,1753.0,-124.3762435913086,-9.150449752807617,-57.7872200012207,Left
3484.739013671875,17262,1,1751.0,1690.0,1756.0,1737.0,1671.0,1751.0,1758.0,1757.0,-124.3762435913086,-9.150449752807617,-57.7872200012207,Left
3486.739013671875,17262,1,1751.0,1801.0,1755.0,1791.0,1753.0,1751.0,1761.0,1747.0,-124.3762435913086,-9.150449752807617,-57.7872200012207,Left
3488.739013671875,17262,1,1747.0,1701.0,1758.0,1741.0,1727.0,1745.0,1762.0,1747.0,-124.3762435913086,-9.150449752807617,-57.7872200012207,Left
3481.102294921875,17263,1,1753.0,1753.0,1763.0,1769.0,1763.0,1750.0,1763.0,1741.0,-124.3762435913086,-9.150449752807617,-57.7872200012207,Left
3483.102294921875,17263,1,1753.0,1719.0,1758.0,1757.0,1725.0,1751.0,1758.0,1753.0,-124.3762435913086,-9.150449752807617,-57.7872200012207,Left
3485.102294921875,17263,1,1766.0,1783.0,1765.0,1779.0,1771.0,1747.0,1763.0,1756.0,-124.3762435913086,-9.150449752807617,-57.7872200012207,Left
3487.102294921875,17263,1,1769.0,1838.0,1775.0,1837.0,1787.0,1749.0,1756.0,1762.0,-124.3762435913086,-9.150449752807617,-57.7872200012207,Left
3489.102294921875,17263,1,1741.0,1737.0,1735.0,1659.0,1709.0,1749.0,1754.0,1705.0,-124.3762435913086,-9.150449752807617,-57.7872200012207,Left
3481.463134765625,17264,1,1736.0,1739.0,1735.0,1750.0,1751.0,1750.0,1753.0,1755.0,-124.3762435913086,-9.150449752807617,-57.7872200012207,Left
3483.463134765625,17264,1,1753.0,1774.0,1755.0,1749.0,1733.0,1743.0,1756.0,1755.0,-124.3762435913086,-9.150449752807617,-57.7872200012207,Left
3485.463134765625,17264,1,1763.0,1747.0,1759.0,1753.0,1752.0,1747.0,1763.0,1749.0,-124.3762435913086,-9.150449752807617,-57.7872200012207,Left
3487.463134765625,17264,1,1767.0,1769.0,1755.0,1755.0,1779.0,1742.0,1757.0,1753.0,-124.3762435913086,-9.150449752807617,-57.7872200012207,Left
3489.463134765625,17264,1,1765.0,1790.0,1759.0,1789.0,1766.0,1751.0,1764.0,1753.0,-124.3762435913086,-9.150449752807617,-57.7872200012207,Left
3481.80322265625,17265,1,1757.0,1745.0,1771.0,1797.0,1759.0,1742.0,1752.0,1755.0,-124.3762435913086,-9.150449752807617,-57.7872200012207,Left
3483.80322265625,17265,1,1756.0,1785.0,1765.0,1785.0,1785.0,1752.0,1757.0,1764.0,-124.3762435913086,-9.150449752807617,-57.7872200012207,Left
3485.80322265625,17265,1,1750.0,1782.0,1737.0,1655.0,1762.0,1751.0,1759.0,1733.0,-124.3762435913086,-9.150449752807617,-57.7872200012207,Left
3487.80322265625,17265,1,1768.0,1735.0,1753.0,1783.0,1681.0,1751.0,1757.0,1753.0,-124.29940032958984,-9.210993766784668,-57.869667053222656,Left
3489.80322265625,17265,1,1782.0,1722.0,1765.0,1725.0,1747.0,1751.0,1761.0,1743.0,-124.29940032958984,-9.210993766784668,-57.869667053222656,Left
3482.56103515625,17266,1,1736.0,1742.0,1739.0,1711.0,1716.0,1747.0,1759.0,1743.0,-124.29940032958984,-9.210993766784668,-57.869667053222656,Left
3484.56103515625,17266,1,1764.0,1747.0,1767.0,1759.0,1741.0,1750.0,1759.0,1755.0,-124.29940032958984,-9.210993766784668,-57.869667053222656,Left
3486.56103515625,17266,1,1757.0,1749.0,1763.0,1781.0,1727.0,1743.0,1758.0,1749.0,-124.29940032958984,-9.210993766784668,-57.869667053222656,Left
3488.56103515625,17266,1,1750.0,1799.0,1741.0,1772.0,1763.0,1751.0,1762.0,1752.0,-124.29940032958984,-9.210993766784668,-57.869667053222656,Left
3490.56103515625,17266,1,1765.0,1747.0,1765.0,1769.0,1769.0,1752.0,1763.0,1761.0,-124.29940032958984,-9.210993766784668,-57.869667053222656,Left
3488.047119140625,17267,1,1746.0,1725.0,1756.0,1715.0,1738.0,1747.0,1763.0,1736.0,-124.29940032958984,-9.210993766784668,-57.869667053222656,Left
3490.047119140625,17267,1,1763.0,1711.0,1757.0,1768.0,1742.0,1747.0,1763.0,1743.0,-124.29940032958984,-9.210993766784668,-57.869667053222656,Left
3492.047119140625,17267,1,1763.0,1776.0,1759.0,1779.0,1763.0,1733.0,1741.0,1739.0,-124.29940032958984,-9.210993766784668,-57.869667053222656,Left
3494.047119140625,17267,1,1752.0,1779.0,1750.0,1761.0,1751.0,1747.0,1759.0,1741.0,-124.29940032958984,-9.210993766784668,-57.869667053222656,Left
3496.047119140625,17267,1,1775.0,1785.0,1763.0,1791.0,1753.0,1750.0,1763.0,1761.0,-124.29940032958984,-9.210993766784668,-57.869667053222656,Left
3489.55419921875,17268,1,1755.0,1801.0,1755.0,1735.0,1779.0,1751.0,1759.0,1749.0,-124.29940032958984,-9.210993766784668,-57.869667053222656,Left
3491.55419921875,17268,1,1752.0,1770.0,1749.0,1711.0,1737.0,1753.0,1759.0,1738.0,-124.29940032958984,-9.210993766784668,-57.869667053222656,Left
3493.55419921875,17268,1,1758.0,1781.0,1761.0,1769.0,1746.0,1749.0,1756.0,1747.0,-124.29940032958984,-9.210993766784668,-57.869667053222656,Left
3495.55419921875,17268,1,1761.0,1759.0,1753.0,1717.0,1722.0,1751.0,1757.0,1737.0,-124.29940032958984,-9.210993766784668,-57.869667053222656,Left
3497.55419921875,17268,1,1757.0,1613.0,1763.0,1737.0,1687.0,1752.0,1755.0,1755.0,-124.29940032958984,-9.210993766784668,-57.869667053222656,Left
3499.525146484375,17269,1,1746.0,1699.0,1739.0,1773.0,1733.0,1749.0,1748.0,1735.0,-124.29940032958984,-9.210993766784668,-57.869667053222656,Left
3501.525146484375,17269,1,1767.0,1843.0,1747.0,1763.0,1773.0,1751.0,1754.0,1751.0,-124.29940032958984,-9.210993766784668,-57.869667053222656,Left
3503.525146484375,17269,1,1767.0,1791.0,1755.0,1767.0,1772.0,1750.0,1758.0,1752.0,-124.29940032958984,-9.210993766784668,-57.869667053222656,Left
3505.525146484375,17269,1,1763.0,1787.0,1765.0,1789.0,1769.0,1749.0,1754.0,1751.0,-124.29940032958984,-9.210993766784668,-57.869667053222656,Left
3507.525146484375,17269,1,1743.0,1710.0,1755.0,1721.0,1715.0,1752.0,1759.0,1750.0,-124.29940032958984,-9.210993766784668,-57.869667053222656,Left
3511.001220703125,17270,1,1765.0,1834.0,1755.0,1772.0,1761.0,1741.0,1759.0,1749.0,-124.29940032958984,-9.210993766784668,-57.869667053222656,Left
3513.001220703125,17270,1,1767.0,1813.0,1763.0,1758.0,1819.0,1751.0,1757.0,1763.0,-124.29940032958984,-9.210993766784668,-57.869667053222656,Left
3515.001220703125,17270,1,1759.0,1741.0,1753.0,1748.0,1747.0,1752.0,1759.0,1737.0,-124.29940032958984,-9.210993766784668,-57.869667053222656,Left
3517.001220703125,17270,1,1767.0,1869.0,1766.0,1812.0,1745.0,1752.0,1757.0,1751.0,-124.29940032958984,-9.210993766784668,-57.869667053222656,Left
3519.001220703125,17270,1,1765.0,1803.0,1756.0,1833.0,1735.0,1747.0,1762.0,1751.0,-124.29940032958984,-9.210993766784668,-57.869667053222656,Left
3521.572998046875,17271,1,1763.0,1691.0,1754.0,1767.0,1711.0,1749.0,1757.0,1749.0,-124.29940032958984,-9.210993766784668,-57.869667053222656,Left
3523.572998046875,17271,1,1757.0,1483.0,1747.0,1559.0,1687.0,1753.0,1762.0,1725.0,-124.29940032958984,-9.210993766784668,-57.869667053222656,Left
3525.572998046875,17271,1,1749.0,1755.0,1747.0,1727.0,1752.0,1743.0,1763.0,1727.0,-124.29940032958984,-9.210993766784668,-57.869667053222656,Left
3527.572998046875,17271,1,1753.0,1782.0,1743.0,1725.0,1746.0,1749.0,1763.0,1745.0,-124.29940032958984,-9.210993766784668,-57.869667053222656,Left
3529.572998046875,17271,1,1769.0,1791.0,1759.0,1781.0,1705.0,1749.0,1765.0,1763.0,-124.29940032958984,-9.210993766784668,-57.869667053222656,Left
3548.063232421875,17272,1,1751.0,1817.0,1767.0,1805.0,1798.0,1747.0,1753.0,1762.0,-124.29940032958984,-9.210993766784668,-57.869667053222656,Left
3550.063232421875,17272,1,1761.0,1802.0,1759.0,1759.0,1745.0,1750.0,1759.0,1737.0,-124.2630386352539,-9.203560829162598,-57.95809555053711,Left
3552.063232421875,17272,1,1785.0,1751.0,1759.0,1738.0,1790.0,1752.0,1759.0,1751.0,-124.2630386352539,-9.203560829162598,-57.95809555053711,Left
3554.063232421875,17272,1,1784.0,1775.0,1764.0,1763.0,1791.0,1752.0,1758.0,1762.0,-124.2630386352539,-9.203560829162598,-57.95809555053711,Left
3556.063232421875,17272,1,1755.0,1829.0,1753.0,1813.0,1797.0,1752.0,1763.0,1747.0,-124.2630386352539,-9.203560829162598,-57.95809555053711,Left
3548.754150390625,17273,1,1755.0,1876.0,1758.0,1753.0,1803.0,1751.0,1759.0,1752.0,-124.2630386352539,-9.203560829162598,-57.95809555053711,Left
3550.754150390625,17273,1,1727.0,1498.0,1739.0,1701.0,1551.0,1749.0,1763.0,1726.0,-124.2630386352539,-9.203560829162598,-57.95809555053711,Left
3552.754150390625,17273,1,1735.0,1780.0,1745.0,1773.0,1783.0,1751.0,1757.0,1739.0,-124.2630386352539,-9.203560829162598,-57.95809555053711,Left
3554.754150390625,17273,1,1751.0,1780.0,1748.0,1723.0,1748.0,1753.0,1759.0,1749.0,-124.2630386352539,-9.203560829162598,-57.95809555053711,Left
3556.754150390625,17273,1,1767.0,1767.0,1765.0,1764.0,1735.0,1751.0,1753.0,1747.0,-124.2630386352539,-9.203560829162598,-57.95809555053711,Left
3549.131103515625,17274,1,1769.0,1806.0,1767.0,1779.0,1772.0,1751.0,1763.0,1759.0,-124.2630386352539,-9.203560829162598,-57.95809555053711,Left
3551.131103515625,17274,1,1764.0,1836.0,1767.0,1782.0,1775.0,1749.0,1757.0,1755.0,-124.2630386352539,-9.203560829162598,-57.95809555053711,Left
3553.131103515625,17274,1,1739.0,1763.0,1755.0,1751.0,1711.0,1752.0,1752.0,1747.0,-124.2630386352539,-9.203560829162598,-57.95809555053711,Left
3555.131103515625,17274,1,1763.0,1711.0,1757.0,1757.0,1742.0,1749.0,1764.0,1748.0,-124.2630386352539,-9.203560829162598,-57.95809555053711,Left
3557.131103515625,17274,1,1763.0,1751.0,1755.0,1775.0,1766.0,1751.0,1756.0,1751.0,-124.2630386352539,-9.203560829162598,-57.95809555053711,Left
3561.218017578125,17275,1,1758.0,1791.0,1765.0,1791.0,1767.0,1750.0,1759.0,1755.0,-124.2630386352539,-9.203560829162598,-57.95809555053711,Left
3563.218017578125,17275,1,1765.0,1670.0,1757.0,1749.0,1735.0,1745.0,1757.0,1749.0,-124.2630386352539,-9.203560829162598,-57.95809555053711,Left
3565.218017578125,17275,1,1748.0,1625.0,1741.0,1663.0,1705.0,1752.0,1758.0,1740.0,-124.2630386352539,-9.203560829162598,-57.95809555053711,Left
3567.218017578125,17275,1,1756.0,1845.0,1753.0,1771.0,1779.0,1749.0,1759.0,1737.0,-124.2630386352539,-9.203560829162598,-57.95809555053711,Left
3569.218017578125,17275,1,1764.0,1817.0,1752.0,1755.0,1783.0,1751.0,1759.0,1742.0,-124.2630386352539,-9.203560829162598,-57.95809555053711,Left
3570.296142578125,17276,1,1747.0,1719.0,1749.0,1764.0,1687.0,1752.0,1759.0,1748.0,-124.2630386352539,-9.203560829162598,-57.95809555053711,Left
3572.296142578125,17276,1,1754.0,1721.0,1755.0,1727.0,1726.0,1748.0,1757.0,1751.0,-124.2630386352539,-9.203560829162598,-57.95809555053711,Left
3574.296142578125,17276,1,1753.0,1779.0,1765.0,1769.0,1752.0,1750.0,1759.0,1748.0,-124.2630386352539,-9.203560829162598,-57.95809555053711,Left
3576.296142578125,17276,1,1765.0,1781.0,1753.0,1751.0,1763.0,1749.0,1759.0,1754.0,-124.2630386352539,-9.203560829162598,-57.95809555053711,Left
3578.296142578125,17276,1,1756.0,1765.0,1766.0,1785.0,1764.0,1751.0,1763.0,1755.0,-124.2630386352539,-9.203560829162598,-57.95809555053711,Left
3579.501220703125,17277,1,1756.0,1706.0,1751.0,1752.0,1766.0,1751.0,1754.0,1759.0,-124.2630386352539,-9.203560829162598,-57.95809555053711,Left
3581.501220703125,17277,1,1742.0,1675.0,1745.0,1747.0,1675.0,1751.0,1762.0,1741.0,-124.2630386352539,-9.203560829162598,-57.95809555053711,Left
3583.501220703125,17277,1,1743.0,1747.0,1749.0,1727.0,1721.0,1752.0,1758.0,1742.0,-124.2630386352539,-9.203560829162598,-57.95809555053711,Left
3585.501220703125,17277,1,1775.0,1855.0,1767.0,1799.0,1840.0,1751.0,1763.0,1749.0,-124.2630386352539,-9.203560829162598,-57.95809555053711,Left
3587.501220703125,17277,1,1753.0,1772.0,1742.0,1720.0,1753.0,1752.0,1757.0,1736.0,-124.2630386352539,-9.203560829162598,-57.95809555053711,Left
3592.158203125,17278,1,1752.0,1695.0,1757.0,1736.0,1687.0,1750.0,1757.0,1749.0,-124.2630386352539,-9.203560829162598,-57.95809555053711,Left
3594.158203125,17278,1,1773.0,1787.0,1765.0,1766.0,1787.0,1751.0,1758.0,1763.0,-124.2630386352539,-9.203560829162598,-57.95809555053711,Left
3596.158203125,17278,1,1771.0,1845.0,1765.0,1806.0,1803.0,1749.0,1763.0,1752.0,-124.2630386352539,-9.203560829162598,-57.95809555053711,Left
3598.158203125,17278,1,1763.0,1897.0,1751.0,1812.0,1771.0,1751.0,1763.0,1726.0,-124.1080093383789,-9.19536304473877,-58.05482482910156,Left
3600.158203125,17278,1,1723.0,1587.0,1727.0,1656.0,1613.0,1751.0,1759.0,1721.0,-124.1080093383789,-9.19536304473877,-58.05482482910156,Left
3610.784912109375,17279,1,1769.0,1668.0,1779.0,1770.0,1733.0,1752.0,1763.0,1763.0,-124.1080093383789,-9.19536304473877,-58.05482482910156,Left
3612.784912109375,17279,1,1773.0,1719.0,1757.0,1692.0,1771.0,1751.0,1753.0,1751.0,-124.1080093383789,-9.19536304473877,-58.05482482910156,Left
3614.784912109375,17279,1,1743.0,1783.0,1748.0,1767.0,1785.0,1751.0,1758.0,1747.0,-124.1080093383789,-9.19536304473877,-58.05482482910156,Left
3616.784912109375,17279,1,1766.0,1877.0,1755.0,1783.0,1806.0,1753.0,1763.0,1737.0,-124.1080093383789,-9.19536304473877,-58.05482482910156,Left
3618.784912109375,17279,1,1765.0,1727.0,1743.0,1739.0,1719.0,1751.0,1761.0,1740.0,-124.1080093383789,-9.19536304473877,-58.05482482910156,Left
3611.27490234375,17280,1,1764.0,1751.0,1765.0,1767.0,1740.0,1752.0,1753.0,1753.0,-124.1080093383789,-9.19536304473877,-58.05482482910156,Left
3613.27490234375,17280,1,1753.0,1843.0,1755.0,1779.0,1749.0,1746.0,1759.0,1752.0,-124.1080093383789,-9.19536304473877,-58.05482482910156,Left
